x_mm,y_mm,sigma_xx_mpa,sigma_yy_mpa,uncertainty_mpa
-5.0,-5.0,8927641.049769968,6164100.447460683,25.359526666662354
-4.090909090909091,-5.0,5015267.479304984,1548102.7636759551,28.95447302558167
-3.1818181818181817,-5.0,-6541040.035536331,-6015811.629478344,29.48852979040097
-2.272727272727273,-5.0,6088446.3178010965,2291002.7817819156,41.80872352736267
-1.3636363636363638,-5.0,-6051848.793505156,-5225797.678872404,27.434600465244415
-0.45454545454545503,-5.0,5434960.273125856,-1555257.4667623085,35.62156492209121
0.45454545454545414,-5.0,5434887.693197257,-1555229.77431855,33.842730994516444
1.3636363636363633,-5.0,-5999728.141697374,-3582729.2942648893,36.73402952180033
2.2727272727272725,-5.0,-1117967.6548026695,-2121875.8642642074,32.51314887587112
3.1818181818181817,-5.0,6530899.250667168,9670319.889468772,25.22956681726859
4.09090909090909,-5.0,-6221327.78729883,-4151145.292294448,44.06134596964206
5.0,-5.0,7603496.89115652,6051849.208303111,27.828166472958365
-5.0,-4.090909090909091,-1933880.0973570116,-2197817.303133452,40.34445079935513
-4.090909090909091,-4.090909090909091,-1385446.6890143962,-2183474.198611339,32.88530204304548
-3.1818181818181817,-4.090909090909091,1500264.602532255,-481825.5191602081,32.9042139973242
-2.272727272727273,-4.090909090909091,-8050680.031347979,-5673547.671412541,31.15210231050608
-1.3636363636363638,-4.090909090909091,12234343.88331073,8407866.433494538,33.53332521411382
-0.45454545454545503,-4.090909090909091,-12931600.11458833,-9372567.756443528,27.249537877154495
0.45454545454545414,-4.090909090909091,-12931625.626762187,-9372602.320465177,32.34990612120021
1.3636363636363633,-4.090909090909091,8609512.226794224,5377956.768637042,33.20226749279122
2.2727272727272725,-4.090909090909091,-5388337.201330412,-3367001.952691121,46.258987275317274
3.1818181818181817,-4.090909090909091,5549581.287189666,10202538.85507717,25.342850503078523
4.09090909090909,-4.090909090909091,-8140664.997732579,-9080896.455626784,32.084531448318415
5.0,-4.090909090909091,-6495987.024476846,-2767971.348744304,27.95911760932081
-5.0,-3.1818181818181817,-707758.8320769933,-1509916.1005441118,45.001453800325386
-4.090909090909091,-3.1818181818181817,832979.0384940223,-1017367.2398220845,34.870882406657756
-3.1818181818181817,-3.1818181818181817,-4580512.88404064,-1076699.8852049713,33.95198955023578
-2.272727272727273,-3.1818181818181817,4314729.490090921,4706820.31953073,27.23745545877725
-1.3636363636363638,-3.1818181818181817,-3935539.4705958944,-6640679.209236319,32.38853635316856
-0.45454545454545503,-3.1818181818181817,-29963.76992887994,3223855.400931004,28.005054284477794
0.45454545454545414,-3.1818181818181817,-30019.35263563377,3223909.1319052116,39.77084971473194
1.3636363636363633,-3.1818181818181817,1736903.4789430695,-2729720.5296662394,42.01948984882701
2.2727272727272725,-3.1818181818181817,2668609.9189589536,1293906.119307647,28.211885896527967
3.1818181818181817,-3.1818181818181817,-10555031.546947794,-12077769.933879362,27.42254150135188
4.09090909090909,-3.1818181818181817,7531391.689767794,6281346.267319229,41.41234943194674
5.0,-3.1818181818181817,-3413523.877686453,-1094371.5333045002,26.239543418163414
-5.0,-2.272727272727273,8559746.42573164,2908029.347444971,27.41188173570218
-4.090909090909091,-2.272727272727273,7498357.796210994,8009686.415932142,25.313777086357565
-3.1818181818181817,-2.272727272727273,-4818229.279054197,148092.371564437,34.20632538889093
-2.272727272727273,-2.272727272727273,-451039.67199563293,-140901.19083836075,34.35678211967655
-1.3636363636363638,-2.272727272727273,1106781.2923770542,755603.3152922435,25.99787901366849
-0.45454545454545503,-2.272727272727273,-2946475.063684055,-1848881.8857894382,42.10587763989573
0.45454545454545414,-2.272727272727273,-2946503.000063702,-1848898.986279285,34.59355229896589
1.3636363636363633,-2.272727272727273,4841379.378904606,2203535.2199986675,38.8526867759032
2.2727272727272725,-2.272727272727273,-6669575.371949777,-4482451.527468823,44.25977363349817
3.1818181818181817,-2.272727272727273,5071147.343791134,9096061.156811262,33.497368545285894
4.09090909090909,-2.272727272727273,-5134920.333486371,-6118964.954869374,41.61309018599283
5.0,-2.272727272727273,263373.2643599655,-2847183.211500178,44.512744644611715
-5.0,-1.3636363636363638,-2286365.77405392,-3506003.5896272524,30.830714466104048
-4.090909090909091,-1.3636363636363638,-11812274.108129935,-9882194.733063608,27.121820418771993
-3.1818181818181817,-1.3636363636363638,2516731.396318669,-4683943.16632992,25.691271203287425
-2.272727272727273,-1.3636363636363638,-4031252.831670007,-5833148.284013052,39.76730309844379
-1.3636363636363638,-1.3636363636363638,2647942.283231586,1995005.1945301834,26.170060363815633
-0.45454545454545503,-1.3636363636363638,793919.2559321787,2628690.959790007,29.12491224308843
0.45454545454545414,-1.3636363636363638,793852.2977121657,2628741.4899612186,28.65432234712726
1.3636363636363633,-1.3636363636363638,-2792692.6369019183,-1582761.8882418685,31.75701053831545
2.2727272727272725,-1.3636363636363638,4256911.336307284,1356877.1846915865,26.69526296608101
3.1818181818181817,-1.3636363636363638,-8096361.453664279,-8870154.105333205,32.0909379822529
4.09090909090909,-1.3636363636363638,5612369.4311694475,1189313.437352228,41.94149136182567
5.0,-1.3636363636363638,6419999.187949856,7160194.695824739,26.9850733965822
-5.0,-0.45454545454545503,5546929.849309057,1136422.450511909,34.40158571444455
-4.090909090909091,-0.45454545454545503,-5914244.458010984,-2550879.2598977024,29.541789373891717
-3.1818181818181817,-0.45454545454545503,3504312.542470561,2852458.2225407087,27.47060140710715
-2.272727272727273,-0.45454545454545503,1365703.721631796,-538994.8176747793,34.473131343548566
-1.3636363636363638,-0.45454545454545503,-3005153.1222047447,-5572514.637310743,31.474551751893358
-0.45454545454545503,-0.45454545454545503,-310925.18237693695,-5101939.502773194,28.350287943016813
0.45454545454545414,-0.45454545454545503,-310913.23849717464,-5101937.903025623,47.68334356293899
1.3636363636363633,-0.45454545454545503,-3275655.8315994274,-5368263.1234146925,31.94607527413628
2.2727272727272725,-0.45454545454545503,2016699.1687731068,1223944.7257734071,30.390457405526735
3.1818181818181817,-0.45454545454545503,-977393.9890315149,6609341.753262323,38.95505530665038
4.09090909090909,-0.45454545454545503,-660903.252866881,292218.7320265904,40.56324523730835
5.0,-0.45454545454545503,-6147842.416603873,-4502328.711520166,32.635341761620346
-5.0,0.45454545454545414,5546927.220126463,1136432.742163506,34.230172211184495
-4.090909090909091,0.45454545454545414,-5914202.0142141925,-2550813.3269713023,55.63834937795144
-3.1818181818181817,0.45454545454545414,3504308.520779598,2852457.22711871,36.8448591697053
-2.272727272727273,0.45454545454545414,1365707.8056200221,-538970.4539950757,49.28896060125322
-1.3636363636363638,0.45454545454545414,-3005137.477550186,-5572473.6983713815,26.642590952468506
-0.45454545454545503,0.45454545454545414,-310939.1266590224,-5101971.069478014,27.81569950807482
0.45454545454545414,0.45454545454545414,-310936.5762868604,-5101970.87093566,31.928806740676016
1.3636363636363633,0.45454545454545414,-3275686.1419489267,-5368323.153913944,28.03536434125043
2.2727272727272725,0.45454545454545414,2016701.939508313,1223968.5783866814,28.370877758316407
3.1818181818181817,0.45454545454545414,-977410.4273115775,6609349.069953473,27.455115042922223
4.09090909090909,0.45454545454545414,-661016.6500550803,292235.1496337397,25.931112493783186
5.0,0.45454545454545414,-6147849.515905114,-4502363.65293409,28.232904906332127
-5.0,1.3636363636363633,585544.1792222715,1482981.6933188164,33.57137575402755
-4.090909090909091,1.3636363636363633,2264626.2331517935,6788495.831449016,28.20271951741291
-3.1818181818181817,1.3636363636363633,-4302875.599811811,-2766786.2245840565,31.369398815840846
-2.272727272727273,1.3636363636363633,5120678.300279096,2747878.4020801666,29.504634505428896
-1.3636363636363638,1.3636363636363633,-3154248.692576139,-2862307.02132276,32.0007644331338
-0.45454545454545503,1.3636363636363633,-2152649.2659536703,1889354.4915693514,35.778272202906145
0.45454545454545414,1.3636363636363633,-2152730.037965793,1889338.7883243873,33.81500815185754
1.3636363636363633,1.3636363636363633,3100056.0385531094,1965006.9615431202,38.11111581531382
2.2727272727272725,1.3636363636363633,-1430318.4712417193,-5065071.382652444,29.095570875707722
3.1818181818181817,1.3636363636363633,-5560937.592634012,-8428761.11113278,28.940926009366976
4.09090909090909,1.3636363636363633,1330212.0753525563,-2260832.298518111,33.45977814335423
5.0,1.3636363636363633,-7029577.844303352,-955380.0830239943,33.25625554340369
-5.0,2.2727272727272725,-7614525.594815045,-4963468.349860179,31.378388711882206
-4.090909090909091,2.2727272727272725,-6154444.988789437,-5223867.220352674,32.958235149395165
-3.1818181818181817,2.2727272727272725,2960001.183044461,3408223.6323123313,35.02760355438872
-2.272727272727273,2.2727272727272725,-2249203.891897468,273514.32577568234,31.309549981599176
-1.3636363636363638,2.2727272727272725,7058385.1487447135,8929037.545119504,32.01925854006681
-0.45454545454545503,2.2727272727272725,-8670347.60903293,-2508926.356858372,41.45103810438232
0.45454545454545414,2.2727272727272725,-8670381.081372948,-2509009.309882336,26.344589709958157
1.3636363636363633,2.2727272727272725,2370020.3761614244,1415784.7840452436,30.077088023844844
2.2727272727272725,2.2727272727272725,-1211013.43801695,-1000791.535192825,43.32462289577542
3.1818181818181817,2.2727272727272725,-612840.5733582885,3786113.2759303255,31.410868816344184
4.09090909090909,2.2727272727272725,225909.9034164066,-3413222.251726756,36.87773015230445
5.0,2.2727272727272725,-5206178.94938245,-6617861.018533265,38.650622294822384
-5.0,3.1818181818181817,1901690.029908157,-1592104.4961945852,47.84728189290007
-4.090909090909091,3.1818181818181817,2342800.9361219555,-2498340.0213133823,40.64962877393316
-3.1818181818181817,3.1818181818181817,-1543968.2908371864,-6513339.639613162,25.018505917858608
-2.272727272727273,3.1818181818181817,2171068.406744556,-1446066.873793269,29.143215971490505
-1.3636363636363638,3.1818181818181817,-2822457.1939739995,-9047921.775932139,37.771722368775364
-0.45454545454545503,3.1818181818181817,174758.95903839727,-1652461.784842117,38.85864533093029
0.45454545454545414,3.1818181818181817,174726.02267843278,-1652384.167874285,41.34803580080876
1.3636363636363633,3.1818181818181817,-4701288.0647610715,-4249471.285913103,27.89288392196257
2.2727272727272725,3.1818181818181817,6211721.7542197015,81994.76360141937,29.967089150664115
3.1818181818181817,3.1818181818181817,-7650889.656614348,-1231345.9444082028,26.9013885914583
4.09090909090909,3.1818181818181817,5443631.599265448,4952804.85092616,45.17244485713647
5.0,3.1818181818181817,-916938.2901671232,4811631.83208065,33.897181242423486
-5.0,4.09090909090909,-1622689.8582475807,5398962.380477886,30.747641242152348
-4.090909090909091,4.09090909090909,-430354.4880557525,3250080.89453008,25.999409013505453
-3.1818181818181817,4.09090909090909,3034315.240813027,3537027.790763483,31.9292511628904
-2.272727272727273,4.09090909090909,-6077704.667433405,-2765713.786230366,31.17226426178007
-1.3636363636363638,4.09090909090909,2294130.7173454426,1545366.6278318327,27.071442772803085
-0.45454545454545503,4.09090909090909,-972722.9126250935,1238562.5653037895,29.854258508120324
0.45454545454545414,4.09090909090909,-972740.2357929932,1238561.709885046,33.11768251063138
1.3636363636363633,4.09090909090909,-4844075.425933342,-1902485.8120036304,25.54985724516125
2.2727272727272725,4.09090909090909,7989602.53929033,2515050.364975428,25.658227938091475
3.1818181818181817,4.09090909090909,-7191294.478572778,-4402759.162405706,30.468073238008795
4.09090909090909,4.09090909090909,1837893.6721125091,-4354901.039776572,33.15058625065164
5.0,4.09090909090909,1721484.7849595805,-3992193.8106835024,33.468813708989956
-5.0,5.0,265490.37108704256,2662573.0557018495,29.70188864308306
-4.090909090909091,5.0,349437.1246705812,-8122202.103676347,27.557794665132484
-3.1818181818181817,5.0,-6418907.007718218,-7205890.213488584,27.07624554574342
-2.272727272727273,5.0,1999402.1305137232,-1206883.3193676523,26.355006349047304
-1.3636363636363638,5.0,2701082.9625478713,-1804550.8619704442,27.319001320665148
-0.45454545454545503,5.0,-4857854.760210562,-1175541.5896171767,27.846575302106633
0.45454545454545414,5.0,-4857881.814682631,-1175519.6433102682,26.648526282180985
1.3636363636363633,5.0,2026888.4935848136,-1960035.0431338986,35.517208410662
2.2727272727272725,5.0,-849123.20949836,-2097326.390653858,34.97391884763512
3.1818181818181817,5.0,-2426663.810981048,-1465867.5408482756,38.05505040562286
4.09090909090909,5.0,5171843.828733995,2097613.3458999507,30.887735631060956
5.0,5.0,3824269.166112241,-2088853.2072729839,36.82833673828212
