x_norm,y_norm,sigma_MPa
0.878055,0.632422,-12.499035
0.082258,0.919588,-10.463389
0.033477,0.899391,-5.028235
0.064758,0.697143,9.786889
0.363869,0.090567,7.741711
0.817789,0.278634,-4.863136
0.300528,0.414596,4.792725
0.091570,0.093700,11.854220
0.879475,0.310436,-14.807181
0.151081,0.641043,-6.927625
0.636629,0.879476,-5.027164
0.669502,0.190001,-2.218988
0.476023,0.968412,-12.925704
0.333945,0.301075,-0.786444
0.070820,0.606720,-11.578968
0.339894,0.558663,4.253533
0.328807,0.293188,9.037185
0.534883,0.241755,15.577252
0.569802,0.320354,11.243233
0.605952,0.868209,6.771674
0.614337,0.484463,9.652985
0.475747,0.854137,-7.613678
0.353629,0.255129,-8.463376
0.665204,0.607542,-14.350466
0.014173,0.803445,-2.239665
0.823746,0.418155,-13.537507
0.734254,0.809662,9.407759
0.359796,0.492247,7.387964
0.086017,0.795097,2.762184
0.520169,0.506585,-15.322185
0.442529,0.595164,7.245237
0.226825,0.764671,0.747165
0.188532,0.786738,-0.046257
0.677667,0.483955,-4.803581
0.257198,0.122564,10.172703
0.450744,0.104700,15.435317
0.304415,0.622617,10.698803
0.280693,0.005919,7.775655
0.930627,0.717151,2.706421
0.353210,0.669599,2.281192
0.183048,0.486552,2.626279
0.114253,0.889003,-8.089695
0.357180,0.987498,1.525559
0.598934,0.416605,13.079323
0.730012,0.173568,-12.612874
0.103888,0.196015,-7.210872
0.162040,0.271632,-13.232925
0.252088,0.041420,-4.865383
0.750902,0.455905,6.054009
0.675983,0.570458,-6.472184
0.376552,0.538844,6.457116
0.305939,0.108284,-4.344920
0.111137,0.037585,-1.202063
0.014531,0.764346,-9.088195
0.441582,0.819306,5.404579
0.632151,0.149561,-19.279280
0.331695,0.046112,-10.667220
0.300527,0.117783,-2.281443
0.627835,0.273326,5.118381
0.431967,0.852789,-8.624308
0.635050,0.271947,-10.840289
0.318941,0.725226,-6.247088
0.347269,0.124037,-6.113550
0.971991,0.751469,-21.507705
0.528444,0.189553,-10.333326
0.108379,0.622839,2.764912
0.734341,0.301674,-3.362148
0.484784,0.310114,-8.525520
0.357097,0.765871,8.671821
0.002617,0.159840,2.666309
0.471811,0.767296,-6.250396
0.944187,0.708444,-4.851473
0.867881,0.859061,-9.919733
0.097784,0.732888,7.991052
0.392739,0.721919,-2.399948
0.569326,0.308809,-22.312467
0.892664,0.471961,4.296337
0.298309,0.585250,-6.044493
0.896130,0.867907,-7.538019
0.360297,0.033890,-2.684736
0.830993,0.027086,-11.117595
0.116707,0.611953,-10.079227
0.480347,0.277455,7.325965
0.520993,0.656401,-5.590289
0.526765,0.884263,-9.522013
0.869106,0.843630,-4.542290
0.249693,0.435663,-11.054706
0.796335,0.884311,-8.030594
0.749036,0.861739,-1.276257
0.001693,0.728244,-7.065660
0.772280,0.433203,-2.853016
0.059068,0.965800,-2.005620
0.364478,0.217842,-3.597230
0.738444,0.246351,0.630055
0.369435,0.198571,-13.245676
0.914997,0.364219,2.592455
0.012816,0.631511,-5.519393
0.991515,0.985382,-10.570057
0.326408,0.233070,-8.343726
0.934167,0.979416,-9.194905
0.333741,0.309381,10.526453
0.547182,0.023558,2.994997
0.139448,0.834139,9.476277
0.140663,0.138428,0.708476
0.125846,0.714487,5.746340
0.738856,0.072182,-12.962958
0.088160,0.175182,-11.572979
0.342585,0.541254,2.342285
0.155974,0.563297,-15.249425
0.105168,0.124953,2.372004
0.261715,0.666511,-1.849783
0.675620,0.402203,-8.193100
0.688008,0.288980,-1.860984
0.220370,0.894929,-1.364053
0.997907,0.595256,5.692117
0.198018,0.754150,-9.383521
0.490877,0.350325,4.508525
0.842547,0.595349,-0.840551
0.169305,0.716477,-2.931382
0.816338,0.430051,-0.092312
0.485603,0.532263,1.605672
0.219313,0.457557,-1.172505
0.822512,0.525008,9.632083
0.904008,0.643442,4.817561
0.483294,0.861304,15.069813
0.390755,0.100032,6.530567
0.879091,0.833367,6.300929
0.014176,0.814052,11.552180
0.803545,0.888997,0.002374
0.394209,0.434941,7.353339
0.403501,0.093920,10.217023
0.850276,0.499539,20.067542
0.829146,0.217184,8.106258
0.322793,0.710931,-6.014164
0.817256,0.034076,5.633653
0.031966,0.263577,-1.585041
0.871091,0.870969,-6.900905
0.281491,0.691876,7.161202
0.519607,0.684011,6.857689
0.925998,0.307687,-0.866534
0.107781,0.124518,10.980794
0.395616,0.083167,-15.373083
0.948202,0.127624,-4.230956
0.415460,0.557857,-5.365172
0.951266,0.068254,-2.430479
0.174756,0.471407,-16.670188
0.107437,0.697756,1.452009
0.998894,0.982123,-12.317747
0.508785,0.855849,-8.683384
0.606015,0.918139,-7.316638
0.946574,0.541754,10.010297
0.509987,0.999148,-2.146789
0.804122,0.523658,-7.721565
0.090028,0.617994,0.190859
0.204538,0.351772,-13.717438
0.878813,0.122450,3.378718
0.997852,0.366448,3.698363
0.817777,0.424728,0.350829
0.312481,0.714431,2.793657
0.482267,0.109566,11.970200
0.416864,0.062510,-4.108266
0.619287,0.040908,11.603119
0.873913,0.852444,0.953122
0.817448,0.142282,-2.828371
0.934936,0.392505,-5.246877
0.301510,0.936523,-0.639135
0.298453,0.300210,-1.475098
0.770918,0.401431,1.684612
0.158675,0.139688,6.102803
0.744926,0.941016,1.417399
0.873858,0.686128,5.727964
0.068649,0.449952,-1.321265
0.103605,0.574366,-8.166670
0.185800,0.060212,10.654671
0.322010,0.131651,-7.534067
0.167789,0.079448,-9.091664
0.278021,0.319285,9.009667
0.301907,0.799895,-7.759538
0.306232,0.029424,2.583943
0.188562,0.654024,16.501801
0.388755,0.624011,6.137941
0.315579,0.252917,5.439182
0.693681,0.158584,6.016562
0.228438,0.332419,-10.208274
0.817998,0.177175,11.941542
0.347760,0.291200,-3.288743
0.268301,0.246771,-13.297201
0.828282,0.121563,-3.552150
0.966892,0.970671,0.523433
0.347744,0.869414,-8.648302
0.333822,0.750536,-14.804042
0.292883,0.066049,7.030364
0.453118,0.396735,-3.334187
0.299728,0.559642,5.201170
0.318372,0.024248,-10.554381
0.828944,0.693548,-1.013265
0.040084,0.885879,0.323475
0.418174,0.909237,-10.534565
0.149801,0.750650,-8.293022
0.968345,0.042661,-5.896047
0.248662,0.513811,5.251793
0.062089,0.966184,5.835744
0.637279,0.721789,1.540635
0.533446,0.202689,-6.010091
0.903655,0.204457,-1.972766
0.297558,0.848640,1.525796
0.376940,0.005867,19.383555
0.780010,0.650836,12.862842
0.071015,0.209865,-4.120412
0.533430,0.540188,-21.476948
0.213038,0.453374,9.337733
0.735409,0.455098,8.841177
0.420504,0.828591,5.349345
0.742904,0.734158,4.864694
0.459621,0.055901,-4.923504
0.033980,0.119781,-5.354795
0.877813,0.992042,-10.788584
0.650421,0.460406,1.736535
0.746737,0.830920,5.834760
0.991376,0.198058,-0.990414
0.006094,0.506469,0.284475
0.488250,0.261530,-2.374560
0.518546,0.930540,5.564487
0.611726,0.879538,4.401109
0.801256,0.802468,11.802470
0.625628,0.382839,-5.272942
0.879924,0.485906,-0.851372
0.129589,0.717685,-14.184439
0.856734,0.756590,16.531898
0.173463,0.763914,11.738582
0.131951,0.101351,-0.037125
0.495681,0.903381,-9.142871
0.426513,0.630315,3.888617
0.361726,0.211821,4.947109
0.915835,0.566026,19.621470
0.070380,0.290864,-8.640605
0.572258,0.545557,-13.190015
0.655518,0.848805,3.809362
0.504268,0.576577,0.920441
0.940033,0.243307,11.212143
0.378239,0.236171,-8.066533
0.909552,0.888206,-8.872925
0.067500,0.309811,2.434284
0.223426,0.545181,12.776794
0.837837,0.845914,-4.058050
0.814435,0.747895,-6.887954
0.136095,0.973002,-14.141340
0.575396,0.741690,5.703188
0.460432,0.264527,10.117765
0.570418,0.163834,5.205932
0.069055,0.220530,4.062592
0.334472,0.563135,0.729088
0.101148,0.665901,-7.249216
0.370748,0.035279,-6.806718
0.709217,0.526283,1.715022
0.293059,0.735679,2.368825
0.843088,0.211036,8.002800
0.634911,0.211218,3.947014
0.381824,0.115545,16.615258
0.451249,0.299824,2.628104
0.917772,0.053822,-1.251062
0.781466,0.193580,-9.462032
0.796453,0.318334,-4.795507
0.608905,0.395691,0.320557
0.989483,0.320624,-0.532777
0.678192,0.774313,3.628710
0.538649,0.061598,3.504317
0.646864,0.375087,14.172595
0.562931,0.713399,7.657446
0.671986,0.945425,1.787183
0.992194,0.624122,-0.814271
0.629327,0.993547,10.426020
0.217689,0.417821,-3.990933
0.838948,0.102943,-6.126144
0.523424,0.358724,-9.937404
0.117781,0.238884,-0.414035
0.574509,0.909029,12.513746
0.149073,0.823426,2.319169
0.635375,0.002229,-6.007588
0.219237,0.096659,25.941947
0.110713,0.109717,-11.662797
0.757172,0.280231,-8.881535
0.390262,0.507007,5.027144
0.328222,0.960182,0.216563
0.993976,0.113904,15.768321
0.281327,0.087240,2.528807
0.076297,0.476153,-12.169988
0.020941,0.082828,0.467699
0.772105,0.284376,-13.667556
0.247386,0.483820,-3.493490
0.371523,0.411677,5.906353
0.350899,0.725626,-8.676879
0.860116,0.074421,0.400567
0.146465,0.971335,4.047369
0.349213,0.814814,-1.777938
0.279628,0.246149,15.835861
0.348030,0.371211,15.629354
0.248233,0.123412,16.727816
0.413372,0.321007,-1.953982
0.238828,0.654317,13.269834
0.506935,0.837042,3.757234
0.196352,0.471049,-3.595289
0.047101,0.749362,-1.076412
0.675849,0.494857,-13.436600
0.039411,0.815937,-15.455836
0.429367,0.659623,-16.324507
0.862642,0.214775,-5.187763
0.473484,0.866956,5.570636
0.331490,0.938837,-1.993146
0.246175,0.809284,-3.615028
0.672637,0.618031,-2.311201
0.497487,0.354165,3.480011
0.824129,0.064029,3.617038
0.873142,0.700143,6.427693
0.035595,0.192523,13.305476
0.183254,0.598847,4.919158
0.172827,0.471010,2.507478
0.695138,0.966603,-5.279606
0.799208,0.791247,-1.886523
0.288029,0.470376,9.839722
0.145098,0.019433,-0.033986
0.515179,0.769278,-9.704617
0.511111,0.160516,-14.460342
0.988153,0.268784,-0.570910
0.544486,0.178606,-6.455222
0.690307,0.984752,-3.454329
0.336085,0.114361,-1.737520
0.235238,0.654288,-5.228304
0.270333,0.396961,-3.483280
0.891632,0.595532,-6.584294
0.931906,0.426584,0.061026
0.714961,0.223921,4.103360
0.832875,0.289031,-0.273956
0.228639,0.298939,-11.515241
0.541227,0.584933,-4.830413
0.710967,0.350779,2.570038
0.579419,0.968395,-1.918964
0.179760,0.868566,-25.457323
0.133170,0.510141,-6.745592
0.122154,0.002386,-7.672277
0.761004,0.594811,0.350186
0.900812,0.384504,12.841305
0.672317,0.894823,-0.193471
0.425300,0.932688,-7.404163
0.917069,0.922592,5.015862
0.683864,0.730285,-6.261105
0.534309,0.441931,-14.828263
0.380816,0.494411,-5.215130
0.278996,0.713338,-13.949717
0.343042,0.454405,7.334207
0.096728,0.187414,-3.956390
0.347521,0.096867,-6.976422
0.998345,0.655244,0.145339
0.198526,0.827329,-0.187684
0.751575,0.076499,-8.161339
0.234752,0.505835,-4.776727
0.457827,0.184117,2.700328
0.396269,0.231717,-0.570400
0.860038,0.265217,9.167271
0.707557,0.783967,-6.582947
0.376654,0.203825,8.717698
0.252463,0.950413,5.594242
0.487912,0.905532,-21.085554
0.507105,0.230448,2.758597
0.468615,0.346829,-8.165417
0.784132,0.825165,-5.568330
0.842672,0.561091,-4.518215
0.749271,0.826089,-4.911664
0.235390,0.698909,1.358355
0.533331,0.150350,5.633871
0.047373,0.715670,5.343351
0.775921,0.145808,-2.273406
0.759808,0.523864,1.510147
0.339045,0.182360,-9.701934
0.186563,0.293135,-6.300309
0.568310,0.010941,-1.938996
0.896214,0.627244,-3.162948
0.041122,0.007189,13.951047
0.511472,0.909372,-0.995044
0.376337,0.145225,-0.766112
0.734210,0.099996,-13.331227
0.143158,0.556216,-10.676335
0.917362,0.159619,-0.971087
0.652916,0.987400,2.710174
0.199288,0.882603,-5.748155
0.700300,0.171839,-3.108835
0.345915,0.774196,2.407302
0.628849,0.561280,6.546812
0.203533,0.870148,3.004401
0.469816,0.653074,-1.263096
0.748155,0.840189,3.894097
0.468300,0.367073,-5.166330
0.898331,0.593475,-8.135417
0.106165,0.778057,-4.789201
0.457782,0.104809,0.631038
0.703198,0.393537,1.144924
0.605402,0.183614,15.848789
0.693149,0.335195,4.919553
0.813507,0.217195,-2.917499
0.330497,0.753590,-7.274218
