x_norm,y_norm,sigma_MPa
0.019568,0.014104,12.314525
0.612454,0.344186,6.136086
0.241112,0.550638,6.098672
0.016635,0.150098,9.561612
0.417446,0.726022,-0.124259
0.668048,0.877042,-0.705373
0.281060,0.503245,11.345084
0.262617,0.224750,6.093334
0.244745,0.842097,-2.632748
0.243467,0.564727,-8.351765
0.155422,0.727275,3.618763
0.111425,0.271614,2.986992
0.122417,0.888704,12.351416
0.805262,0.660396,-4.974367
0.157252,0.696373,-7.355361
0.927422,0.749059,-8.129927
0.236156,0.067757,-5.926768
0.230838,0.857903,4.771705
0.978868,0.015818,-7.084774
0.853052,0.421581,-10.157457
0.385748,0.348036,13.108611
0.189263,0.049191,-6.605079
0.930636,0.052286,-5.292671
0.002838,0.850408,-4.785421
0.846554,0.713825,9.118643
0.669528,0.359220,-1.841471
0.730962,0.663167,9.009417
0.769968,0.938488,-14.097621
0.567635,0.715366,-12.008006
0.633853,0.936594,8.581418
0.701905,0.813714,-8.598150
0.974914,0.288386,-5.114787
0.793499,0.209564,-2.820749
0.456002,0.787418,-4.250667
0.658065,0.589717,-5.434617
0.820253,0.889893,6.843826
0.854399,0.237937,-3.128038
0.853582,0.428769,11.584908
0.665729,0.087452,0.380064
0.461406,0.781053,10.048698
0.852797,0.905652,3.290770
0.042111,0.932482,5.321643
0.712189,0.639757,12.019721
0.216070,0.981163,-1.508317
0.814089,0.937059,6.713175
0.346837,0.773657,1.082131
0.502357,0.513036,0.585475
0.303452,0.442060,-0.854950
0.845032,0.774917,3.969797
0.702283,0.823763,-6.121542
0.628901,0.608361,-13.948619
0.285242,0.294237,7.623121
0.148445,0.806237,-6.720206
0.462805,0.665534,-2.813492
0.079804,0.035317,-7.879561
0.658184,0.682660,5.733825
0.024442,0.910167,12.883159
0.872063,0.031406,-2.687343
0.339918,0.848769,-8.385054
0.847871,0.314835,-1.021156
0.778551,0.522162,0.028184
0.894019,0.388610,7.242519
0.684666,0.412512,-2.343379
0.564190,0.747759,9.719958
0.863894,0.398133,-4.019438
0.726159,0.428199,13.581262
0.473501,0.614770,5.593933
0.661356,0.378096,6.478195
0.444459,0.576857,11.987289
0.765213,0.320911,3.688986
0.175375,0.851198,0.079841
0.626635,0.036462,-1.018326
0.408551,0.509887,2.566551
0.549070,0.871231,3.907189
0.908619,0.480464,1.301235
0.850724,0.382524,12.679914
0.592144,0.901009,3.787005
0.608538,0.432050,-9.807357
0.123315,0.439496,-5.175410
0.879239,0.966225,-7.483796
0.035724,0.898764,-6.360966
0.818184,0.544731,8.735032
0.990664,0.350963,15.281201
0.988715,0.001846,22.680987
0.000727,0.288372,5.712527
0.973291,0.296343,3.787122
0.096750,0.260551,5.987386
0.484804,0.781216,0.516938
0.983050,0.123678,2.891448
0.711987,0.175132,5.083472
0.224563,0.774207,8.426192
0.294988,0.613196,11.488364
0.178877,0.026686,14.602458
0.290204,0.747286,6.310867
0.466295,0.639267,0.164330
0.313614,0.460913,6.511805
0.593674,0.519376,-8.012918
0.055054,0.599445,2.161548
0.281196,0.784995,-3.936194
0.921830,0.509932,-13.913761
0.345040,0.398359,16.570062
0.868893,0.389102,2.675219
0.713552,0.293634,2.455714
0.321399,0.579261,-8.895902
0.223788,0.602813,-0.394689
0.676832,0.934304,-7.046117
0.406328,0.455854,11.576643
0.247566,0.281766,-10.828088
0.249440,0.150801,7.818422
0.075511,0.441041,13.695611
0.092016,0.527128,9.340570
0.861338,0.822132,14.587643
0.657014,0.453476,9.472086
0.910805,0.540095,4.441069
0.530382,0.889441,5.160534
0.064925,0.828822,-3.955443
0.148416,0.676270,-3.943271
0.373785,0.338617,-0.654329
0.459313,0.529233,6.297903
0.522158,0.932397,-3.696674
0.719410,0.437109,22.652869
0.195333,0.329866,10.363740
0.387507,0.737414,6.588082
0.877543,0.549267,3.173089
0.933541,0.475401,-8.461370
0.090948,0.207286,5.920300
0.952763,0.413343,-7.434004
0.299855,0.977943,3.946367
0.627603,0.486978,-1.898242
0.851760,0.689057,-10.667001
0.467203,0.874134,13.109338
0.849581,0.212511,8.075354
0.827660,0.460921,-4.941454
0.613058,0.625579,-10.684483
0.005684,0.936137,5.599660
0.783040,0.257176,-4.077101
0.852977,0.542894,-11.054644
0.661801,0.421833,-4.085446
0.670355,0.693196,9.717768
0.841788,0.502629,-1.419500
0.631135,0.186277,3.965133
0.507311,0.367657,-8.752476
0.452141,0.438695,7.834764
0.943632,0.724744,12.046211
0.416754,0.153909,-2.712720
0.554657,0.965977,-8.039850
0.218743,0.227601,9.749373
0.860511,0.297128,5.599581
0.793209,0.365355,-17.682272
0.711486,0.497102,-7.872682
0.208767,0.875160,-6.118575
0.378740,0.273558,4.907822
0.917439,0.952956,9.961419
0.367940,0.112773,-11.613388
0.459012,0.875937,7.669350
0.962332,0.290920,6.320452
0.733907,0.966264,-2.132907
0.237317,0.446485,-7.374703
0.058333,0.065691,-1.883487
0.011412,0.075330,4.330919
0.746093,0.071054,-5.555900
0.103235,0.501593,-15.378299
0.162072,0.842253,1.075880
0.902625,0.705990,5.587502
0.150390,0.463713,-3.066583
0.832451,0.715309,-3.025784
0.757892,0.648668,1.464507
0.601118,0.134835,4.006794
0.056190,0.692631,-6.069671
0.122541,0.759583,7.938980
0.934434,0.369944,5.314525
0.165419,0.133770,-11.932679
0.766644,0.992465,11.554473
0.522364,0.527264,-18.105962
0.896909,0.895782,5.700001
0.165571,0.329434,-11.455365
0.438001,0.585560,4.820642
0.243673,0.417038,-12.389714
0.984642,0.119675,0.907005
0.553384,0.764581,-0.943568
0.816921,0.142890,8.624412
0.228101,0.481853,-7.761039
0.245135,0.516818,-8.589534
0.824019,0.409425,-12.137870
0.727793,0.735406,14.644808
0.198339,0.727246,-14.314965
0.126443,0.659839,3.603213
0.758402,0.754843,-10.415770
0.297104,0.868689,-0.476355
0.641883,0.695352,13.692857
0.542639,0.117913,-0.937944
0.456704,0.291963,7.154130
0.252350,0.650739,7.999892
0.242403,0.163420,6.788872
0.997261,0.801529,8.432833
0.576474,0.438757,-10.871643
0.388549,0.318206,4.639508
0.747820,0.877795,-4.651768
0.738905,0.521850,-1.043859
0.682479,0.730573,-3.686422
0.585637,0.226767,3.790011
0.344522,0.861243,-7.590765
0.610036,0.388417,-1.643263
0.611915,0.149454,-6.757639
0.869554,0.507973,5.045032
0.091860,0.573172,1.147003
0.291302,0.952267,-3.981953
0.710087,0.600182,-3.179077
0.305994,0.130916,8.494897
0.065745,0.571114,-2.956476
0.443973,0.104462,6.860554
0.393015,0.028170,9.185329
0.612154,0.175237,-13.955715
0.852889,0.658183,2.672529
0.112354,0.071185,2.841544
0.171620,0.441556,0.821612
0.795393,0.968289,5.105240
0.262959,0.000449,-5.144560
0.827370,0.784462,-2.529174
0.820548,0.062331,7.832760
0.877848,0.471071,-6.995710
0.054240,0.765967,8.632999
0.727960,0.936121,-10.877064
0.958271,0.379342,-2.934782
0.838623,0.295692,4.213578
0.488688,0.422069,-2.916363
0.148435,0.449597,9.725160
0.441240,0.758592,-1.483110
0.412684,0.617466,4.403724
0.155323,0.188751,8.100102
0.205244,0.234538,-11.536977
0.551342,0.345368,-9.847942
0.915127,0.609615,-7.767956
0.653866,0.132213,3.576563
0.700969,0.602579,-2.363678
0.560238,0.858574,-5.750787
0.266327,0.492198,-7.530673
0.272396,0.452707,-5.323500
0.351168,0.574025,14.704873
0.885368,0.562330,0.468577
0.072950,0.558975,-4.544278
0.758675,0.563218,0.014563
0.479281,0.717953,-5.604176
0.311240,0.946938,-6.200570
0.326833,0.070698,-0.758255
0.406500,0.411812,-9.236720
0.246384,0.569218,12.415594
0.675474,0.926765,-0.488672
0.018849,0.323824,-1.906230
0.276335,0.887408,8.629293
0.475928,0.361697,2.882735
0.451112,0.797441,-5.834342
0.668579,0.007553,10.274630
0.320843,0.756716,14.240958
0.867009,0.235161,4.795000
0.434042,0.417276,-2.223897
0.355974,0.853400,-0.572550
0.870222,0.485749,-5.780864
0.092687,0.141921,-4.482100
0.489999,0.965492,0.959391
0.194730,0.944676,-2.768204
0.898982,0.205736,11.202260
0.886477,0.753423,-2.925992
0.026517,0.680581,6.360496
0.342108,0.681910,3.739739
0.193455,0.959753,6.290876
0.277915,0.848307,-19.801679
0.876220,0.524343,-2.629994
0.865946,0.305904,-3.109685
0.363121,0.805821,-2.908008
0.102709,0.163832,-3.456577
0.238348,0.259200,-7.034447
0.507158,0.953282,7.756802
0.981860,0.380479,-3.848472
0.535133,0.042084,-8.790378
0.963596,0.343917,8.596468
0.626184,0.628550,-3.097422
0.468753,0.232415,3.712273
0.091289,0.650679,-6.949331
0.839879,0.651118,-14.830641
0.302452,0.724291,-11.216912
0.015831,0.609380,-10.160571
0.271940,0.784748,-8.378030
0.290962,0.667007,16.408973
0.908888,0.476430,-5.469273
0.463045,0.475201,-15.247893
0.111038,0.342096,10.410279
0.388814,0.246367,21.622387
0.313047,0.790774,-6.097615
0.732953,0.949794,-1.978285
0.658521,0.433002,4.957756
0.474280,0.035591,14.554096
0.768172,0.084236,-16.750193
0.255287,0.930516,-2.547556
0.237763,0.112715,-11.295784
0.357112,0.515352,0.317578
0.303542,0.762522,-2.650199
0.687357,0.983306,3.362965
0.685236,0.945642,-3.967858
0.779128,0.884284,1.400729
0.250943,0.804276,-9.375947
0.059144,0.363182,-1.023616
0.634488,0.451372,-7.208237
0.004362,0.438728,5.611121
0.094137,0.563141,-3.079025
0.525817,0.225085,6.770832
0.829572,0.339174,-27.654985
0.986416,0.127543,-5.947062
0.563828,0.881759,18.358586
0.757019,0.788444,-6.007128
0.060857,0.951146,0.628094
0.901288,0.738787,-2.262039
0.513234,0.362670,8.573747
0.304568,0.612518,-5.550054
0.015341,0.079002,-4.481974
0.758614,0.637578,11.144180
0.632785,0.104682,15.404489
0.259616,0.043989,11.818184
0.968645,0.829133,5.070806
0.061868,0.316673,0.484707
0.641618,0.265771,5.885462
0.563854,0.956968,-2.068152
0.964212,0.118994,-5.480365
0.414739,0.881375,-16.381625
0.310312,0.142486,5.384913
0.985325,0.479920,12.186200
0.287637,0.265794,-14.063774
0.067836,0.459015,-4.654819
0.213148,0.480447,2.140105
0.916222,0.402291,-5.889888
0.691539,0.244609,17.646622
0.302518,0.494723,3.055166
0.684823,0.002943,-3.445034
0.330723,0.627601,5.549024
0.496800,0.306028,-0.429306
0.988524,0.561346,5.795569
0.632485,0.714152,-6.305374
0.152630,0.152126,14.577212
0.806179,0.859963,4.954403
0.531408,0.665627,5.250370
0.022900,0.830124,-6.636827
0.575438,0.080728,7.546678
0.380713,0.443998,11.096372
0.491493,0.165290,0.697883
0.768159,0.199030,-2.284590
0.961122,0.741370,-2.317888
0.780666,0.799140,-2.296629
0.963652,0.241476,-8.831264
0.229965,0.984847,0.827376
0.214137,0.722907,3.160538
0.651608,0.720862,2.467331
0.962344,0.112158,7.292108
0.028280,0.271879,3.701129
0.824599,0.267539,-6.227827
0.037986,0.981448,8.365100
0.770994,0.621786,10.434943
0.414855,0.245212,-4.613527
0.400886,0.036099,-1.804607
0.949944,0.913512,7.180899
0.601919,0.429791,-16.682300
0.972245,0.487286,-3.737896
0.578956,0.925804,-4.407879
0.357195,0.366746,0.550511
0.964534,0.550955,-3.962507
0.154316,0.258257,-5.566571
0.487334,0.032345,-14.272038
0.482186,0.824815,4.709683
0.527980,0.563274,-8.863373
0.433981,0.593648,-1.615931
0.080121,0.019894,0.797809
0.510438,0.366356,-1.670151
0.164248,0.286491,-1.556873
0.005895,0.043429,17.714155
0.004736,0.577004,-5.343095
0.622516,0.562671,1.550875
0.171394,0.868800,0.801697
0.537468,0.614224,-4.695756
0.060155,0.603838,-6.309143
0.587061,0.873462,-13.829460
0.620213,0.807154,-17.928200
0.874905,0.811048,2.143925
0.823147,0.395253,-6.575008
0.104722,0.130641,-0.105199
0.723832,0.418945,2.545575
0.542787,0.323620,3.963979
0.825870,0.882924,-1.738158
0.103906,0.640254,-2.562062
0.102309,0.504563,2.203269
0.813624,0.424429,-7.871067
0.005951,0.440531,5.390433
0.323927,0.585244,-9.213347
0.667244,0.522913,3.034119
0.935587,0.884274,-0.401026
0.456443,0.024052,2.754951
0.477646,0.648659,3.695679
0.800567,0.661275,-7.835307
0.081602,0.365895,1.292081
0.016619,0.692075,-1.867207
0.273062,0.086835,8.601032
0.721901,0.804110,4.362824
