x_mm,y_mm,sigma_xx_mpa,sigma_yy_mpa,uncertainty_mpa
-5.0,-5.0,-4884472.820731265,-640030.9352562,32.37698426865794
-4.090909090909091,-5.0,273898.5030638104,1356356.7625006922,27.09338302422383
-3.1818181818181817,-5.0,-2148409.7285669553,-2518665.7751577026,41.57424247913795
-2.272727272727273,-5.0,1584931.8196983298,-2396835.858177009,41.82321890930538
-1.3636363636363638,-5.0,-1464333.8461491945,-4661859.966452703,27.270816656245632
-0.45454545454545503,-5.0,1070958.8732282764,-965915.1207343803,33.50473228665631
0.45454545454545414,-5.0,1070993.4980187207,-965884.4392680016,44.067694912087546
1.3636363636363633,-5.0,-1883039.217719657,-1457653.3931543655,27.09486148277066
2.2727272727272725,-5.0,471176.770347411,-4699494.00468421,32.27879808849621
3.1818181818181817,-5.0,-193612.83134990095,-1601178.1680251472,30.345986800099265
4.09090909090909,-5.0,924621.3939568063,-304666.3390224397,30.104015670442834
5.0,-5.0,4875342.699706097,2189633.8523899275,30.1287853074235
-5.0,-4.090909090909091,2020597.884248559,3912595.718270013,26.44313878618785
-4.090909090909091,-4.090909090909091,-2699226.9406862813,-2486562.229948906,25.386965020727626
-3.1818181818181817,-4.090909090909091,338836.2673092758,53778.36452745819,28.896506407902706
-2.272727272727273,-4.090909090909091,-1212005.0229532362,-1005241.1897451412,25.098152483289994
-1.3636363636363638,-4.090909090909091,1556095.4768520917,-477576.9084798068,32.308768764345025
-0.45454545454545503,-4.090909090909091,-465199.28881505795,491867.5611189244,30.19120295976241
0.45454545454545414,-4.090909090909091,-465216.4327903622,491900.9015365227,31.34133232021145
1.3636363636363633,-4.090909090909091,120774.05754914845,1398281.7204792898,27.803048257002686
2.2727272727272725,-4.090909090909091,-1905232.8696246338,889366.8082236975,41.28774664931946
3.1818181818181817,-4.090909090909091,3210947.19761978,3344240.873250375,42.48411741774968
4.09090909090909,-4.090909090909091,-3926913.9616045696,-4340719.682110921,28.31784331799467
5.0,-4.090909090909091,-2014985.0365250243,-1124685.9613060334,31.921890274119804
-5.0,-3.1818181818181817,3085975.8296802216,1820117.198583023,31.127492719861362
-4.090909090909091,-3.1818181818181817,2493334.438047733,3649321.8615669743,32.08575709469833
-3.1818181818181817,-3.1818181818181817,-2211033.4036617,-2810119.900002218,42.16030510998092
-2.272727272727273,-3.1818181818181817,-1564162.0678381014,393897.3831933545,35.710772899297524
-1.3636363636363638,-3.1818181818181817,3812738.269663648,3708210.4222316383,32.96180936004811
-0.45454545454545503,-3.1818181818181817,-2223524.219652443,-566030.8016901581,32.10008459366333
0.45454545454545414,-3.1818181818181817,-2223552.6160625773,-566040.9459537092,27.897145031137367
1.3636363636363633,-3.1818181818181817,1706014.5609632812,-2563888.0789476316,43.91343149210622
2.2727272727272725,-3.1818181818181817,-3527911.6849466115,-3718818.570370189,32.57120125438266
3.1818181818181817,-3.1818181818181817,43108.21405639969,-2335279.0306823254,28.30589478876855
4.09090909090909,-3.1818181818181817,2644046.7286099633,3984625.7439062563,27.086448232192343
5.0,-3.1818181818181817,-203048.1663517012,-1009227.7540611099,37.39156809873417
-5.0,-2.272727272727273,2178967.6762181795,-1602646.945563772,28.93259585445878
-4.090909090909091,-2.272727272727273,-1636513.1030396188,-3632404.335363499,26.711224657130177
-3.1818181818181817,-2.272727272727273,4902545.403829112,3387483.58047453,29.51929060499104
-2.272727272727273,-2.272727272727273,-1806012.1865455636,-1883936.1252160892,34.21287988348213
-1.3636363636363638,-2.272727272727273,-1519022.2663919183,-5808150.710650882,47.754812521236225
-0.45454545454545503,-2.272727272727273,-1705526.565412606,-1686953.9099598746,45.12595134008268
0.45454545454545414,-2.272727272727273,-1705586.0221759656,-1686951.5398210855,42.01462824915927
1.3636363636363633,-2.272727272727273,4134156.3902371973,4311077.642934061,37.68841696992776
2.2727272727272725,-2.272727272727273,-2611974.5767264524,1488286.4582966038,39.76615800439883
3.1818181818181817,-2.272727272727273,1811597.9509145506,1349569.2011629883,26.224260160905715
4.09090909090909,-2.272727272727273,-3035038.117818898,-3975203.317085619,26.235990571782708
5.0,-2.272727272727273,2101059.7706069103,1448464.2541695884,30.957582529505125
-5.0,-1.3636363636363638,-3285748.4192145024,-3005210.5569266453,27.713489528010246
-4.090909090909091,-1.3636363636363638,-244319.46938652263,-310391.47584253526,31.10538562687322
-3.1818181818181817,-1.3636363636363638,-275060.642276586,-1405445.076925543,25.19067926710268
-2.272727272727273,-1.3636363636363638,-700908.6978927569,1211298.0463095782,25.068782209427116
-1.3636363636363638,-1.3636363636363638,1194721.2810872495,1381485.9971482232,27.096571275850426
-0.45454545454545503,-1.3636363636363638,689207.6170985618,1278362.989272132,37.75016294067522
0.45454545454545414,-1.3636363636363638,689254.2207880871,1278420.3617820381,40.24188325462963
1.3636363636363633,-1.3636363636363638,-2258467.3545773407,-3033776.0359967067,26.849214078783746
2.2727272727272725,-1.3636363636363638,987872.2543488893,-1092409.8161599627,41.51379952669743
3.1818181818181817,-1.3636363636363638,-1605839.9112011571,-2534905.30910443,27.177477374424647
4.09090909090909,-1.3636363636363638,2437484.9699263084,318961.9612712395,33.1360823437643
5.0,-1.3636363636363638,708825.6824553218,357221.495981659,27.276658598600577
-5.0,-0.45454545454545503,-848223.9016346246,3213710.986536712,34.02403662172867
-4.090909090909091,-0.45454545454545503,1103134.3418940967,3279687.5508959717,31.40250056872575
-3.1818181818181817,-0.45454545454545503,-1740845.3853216828,-525947.4812409698,31.268693850393184
-2.272727272727273,-0.45454545454545503,-2042356.1102132767,346920.2809552373,37.43069605247126
-1.3636363636363638,-0.45454545454545503,3635148.250490441,1049637.1845360713,30.214592160933176
-0.45454545454545503,-0.45454545454545503,-1124948.9093309352,982532.031916398,44.55518663009006
0.45454545454545414,-0.45454545454545503,-1125041.6759188294,982520.7208218481,33.8318712540906
1.3636363636363633,-0.45454545454545503,-2397613.9512338494,-197011.88933326246,28.328544556925806
2.2727272727272725,-0.45454545454545503,1203980.120804794,1864280.2496795561,29.591292751686964
3.1818181818181817,-0.45454545454545503,-727016.190465242,1921696.541513911,25.64646526620183
4.09090909090909,-0.45454545454545503,1891781.22000027,1860033.5626857074,46.31282911986179
5.0,-0.45454545454545503,-560549.4516606784,-4290125.343925671,33.69927579241265
-5.0,0.45454545454545414,-848239.3648838531,3213763.9556346335,25.166187924761466
-4.090909090909091,0.45454545454545414,1103107.012857933,3279652.3031519237,37.13701468343393
-3.1818181818181817,0.45454545454545414,-1740902.9549079228,-525961.4356701331,26.241125191091854
-2.272727272727273,0.45454545454545414,-2042384.7772548678,346980.1326170801,29.27566730190258
-1.3636363636363638,0.45454545454545414,3635123.912328213,1049650.4044683853,28.029421923745133
-0.45454545454545503,0.45454545454545414,-1125048.647059897,982554.810631308,31.929886071208546
0.45454545454545414,0.45454545454545414,-1124986.5472820536,982544.1859051316,32.64457826972503
1.3636363636363633,0.45454545454545414,-2397631.733570685,-196964.6054909236,33.86923969573783
2.2727272727272725,0.45454545454545414,1203960.789448333,1864267.464037846,28.786921080504847
3.1818181818181817,0.45454545454545414,-727046.1929915685,1921660.16138859,30.57144736447045
4.09090909090909,0.45454545454545414,1891775.3187932232,1860066.2803082292,30.6561021294209
5.0,0.45454545454545414,-560577.5139636472,-4290210.133056763,28.976210550546924
-5.0,1.3636363636363633,-2359333.066558982,-3353194.315568935,36.061635710076786
-4.090909090909091,1.3636363636363633,-2395289.1429895996,-3633512.4627600857,29.743428008289225
-3.1818181818181817,1.3636363636363633,1471832.6503360814,-1165000.5450467307,29.19265282930574
-2.272727272727273,1.3636363636363633,-3554110.375637819,-2432804.572304207,39.48049950520512
-1.3636363636363638,1.3636363636363633,5305874.947353775,902390.0044290312,29.269736486935923
-0.45454545454545503,1.3636363636363633,-4051678.4535326255,-2548244.4912994835,27.4343745581428
0.45454545454545414,1.3636363636363633,-4051728.3181496793,-2548202.068214352,29.238045715053843
1.3636363636363633,1.3636363636363633,704075.622111159,-799389.0126975244,28.83579889687513
2.2727272727272725,1.3636363636363633,-583918.507351291,-1616573.829504439,26.811874006905956
3.1818181818181817,1.3636363636363633,32899.22750362269,-1617842.3977204328,30.37309486976245
4.09090909090909,1.3636363636363633,934929.09759889,-689680.8697474598,27.67536684584151
5.0,1.3636363636363633,3944248.3916607318,4199919.943892859,26.939691184934087
-5.0,2.2727272727272725,-744392.4234542007,2657302.8076647487,26.554179021572057
-4.090909090909091,2.2727272727272725,-2399514.638840036,36645.35559530281,32.8006551977949
-3.1818181818181817,2.2727272727272725,948444.5882190448,-862878.7457429006,31.83305860489358
-2.272727272727273,2.2727272727272725,-462878.63380838244,2840768.823056572,34.16895496028799
-1.3636363636363638,2.2727272727272725,190663.07159629615,-549848.5328243221,31.494085187963545
-0.45454545454545503,2.2727272727272725,-1778847.3235902477,-1695461.7162407897,29.50913130492157
0.45454545454545414,2.2727272727272725,-1778871.363047444,-1695434.7533551436,26.105722421270148
1.3636363636363633,2.2727272727272725,1239687.5799853029,868917.7020343196,31.47677248957785
2.2727272727272725,2.2727272727272725,-1555754.7063527268,369834.7586878215,29.78019641759286
3.1818181818181817,2.2727272727272725,1722224.3183582425,525630.6406566374,39.65683480193398
4.09090909090909,2.2727272727272725,-1776942.5159771903,511081.2248853212,34.50434395541262
5.0,2.2727272727272725,-5487004.228787554,-1427488.302976559,33.012920116530196
-5.0,3.1818181818181817,-1948416.1183890037,-3705188.3696069634,29.06309154336748
-4.090909090909091,3.1818181818181817,-619928.4360203609,3703463.93019482,37.13896551354517
-3.1818181818181817,3.1818181818181817,5027995.135604098,2501184.2861284753,45.0953997662746
-2.272727272727273,3.1818181818181817,-4465820.992809238,-4833495.147738518,28.56085116621802
-1.3636363636363638,3.1818181818181817,-2679300.0870375265,-3324708.4496503854,51.37212011417857
-0.45454545454545503,3.1818181818181817,4203990.900981069,5621209.6851553,32.48431034175088
0.45454545454545414,3.1818181818181817,4203928.640089374,5621184.544910134,30.824633600253765
1.3636363636363633,3.1818181818181817,-1288122.911534256,461078.96163750405,36.49741863445365
2.2727272727272725,3.1818181818181817,-1872816.9596070535,-1063496.8977204685,26.09081453942656
3.1818181818181817,3.1818181818181817,3241090.2436104403,1290546.0773981903,41.543635796959066
4.09090909090909,3.1818181818181817,-4190107.428500552,-1660317.445228703,32.25390423698182
5.0,3.1818181818181817,-2950093.1217530705,-708690.7854786883,46.79107893922047
-5.0,4.09090909090909,4398915.533734278,4879631.773799769,28.669595348215665
-4.090909090909091,4.09090909090909,-4894084.459613455,-3437681.4034380475,27.284250674483694
-3.1818181818181817,4.09090909090909,2975183.314184561,1229541.731252986,34.1327053281313
-2.272727272727273,4.09090909090909,374576.6280893013,4774168.079852693,41.30103692861536
-1.3636363636363638,4.09090909090909,1887775.909472424,1867525.4948500332,26.596696388614244
-0.45454545454545503,4.09090909090909,-3919370.1567866993,-5903301.817061082,30.333331958319082
0.45454545454545414,4.09090909090909,-3919278.2697105086,-5903339.670146138,37.29658401393567
1.3636363636363633,4.09090909090909,-180531.1268239001,-1870398.097975881,40.61566501442229
2.2727272727272725,4.09090909090909,1688790.2410928537,1489524.740605463,39.02500880753732
3.1818181818181817,4.09090909090909,-544645.5393029051,-1727070.2452756756,30.293195060224875
4.09090909090909,4.09090909090909,-1156991.842545433,-1190644.9134092268,28.312773530508792
5.0,4.09090909090909,-3303375.0184085458,-214368.7662536211,40.65647826843601
-5.0,5.0,-1276040.558981958,-4533717.4619719805,32.90381111376307
-4.090909090909091,5.0,-3602762.808553346,-2725787.1187858772,37.177328247186296
-3.1818181818181817,5.0,-243770.79792362827,1114420.9031746935,28.994136255337214
-2.272727272727273,5.0,3099905.7380674225,2697256.3032216174,34.62823624461195
-1.3636363636363638,5.0,410908.6409945882,-678317.7562203606,33.723035245068836
-0.45454545454545503,5.0,-3022870.530455236,-3498223.635945574,43.89493723910773
0.45454545454545414,5.0,-3022851.276416376,-3498241.628680246,32.65418839415226
1.3636363636363633,5.0,-815034.9921743367,-292319.12157976173,28.376901054270412
2.2727272727272725,5.0,5418312.856519859,2501169.32139708,25.489943596731763
3.1818181818181817,5.0,-8159241.942415404,-4375434.7932630265,33.08503633659427
4.09090909090909,5.0,6574747.8159581255,2099296.470672016,38.01846364356264
5.0,5.0,-412539.2719268777,-2889469.64968492,29.08423417165094
