x_norm,y_norm,sigma_MPa
0.859463,0.948366,-13.704101
0.605592,0.435644,3.890206
0.030145,0.693758,-10.683585
0.093497,0.453955,-2.037531
0.204870,0.781010,10.965008
0.762703,0.174730,-2.011126
0.838115,0.269846,-4.292582
0.176012,0.448914,8.562723
0.177543,0.041884,-0.447623
0.566371,0.064512,14.829849
0.564577,0.043283,-12.975492
0.053485,0.867098,-2.824188
0.335937,0.620428,-2.385661
0.329124,0.981184,-4.858328
0.425742,0.300159,4.929992
0.943764,0.044613,-2.992131
0.939705,0.393352,6.541464
0.347097,0.762724,-1.534002
0.426882,0.317461,3.497080
0.033501,0.950820,12.020544
0.760378,0.913046,-9.403782
0.440565,0.114674,3.308513
0.800817,0.097307,-24.086873
0.951606,0.084289,-4.163990
0.211450,0.905822,3.964132
0.648992,0.017620,17.373453
0.044720,0.162475,3.129894
0.581273,0.311810,-3.247752
0.823728,0.108104,-8.764011
0.475617,0.525149,-7.734432
0.733458,0.194088,10.737657
0.209185,0.386351,-2.117596
0.672706,0.248202,-4.600589
0.075658,0.742457,9.616581
0.223840,0.912328,-10.654794
0.309233,0.305290,10.010882
0.359885,0.892421,5.125563
0.984052,0.421797,18.059965
0.577546,0.119432,3.942768
0.142948,0.657718,-1.800200
0.879916,0.662243,17.873234
0.164026,0.878177,8.596517
0.542086,0.285371,-6.586417
0.339334,0.207170,10.887823
0.933502,0.551584,7.274048
0.527696,0.789613,-6.575815
0.600684,0.096836,7.844581
0.307862,0.074223,2.256239
0.541968,0.169185,2.168012
0.910385,0.600138,13.447333
0.143098,0.987129,-5.961201
0.542226,0.026757,4.817372
0.181617,0.067064,-8.277689
0.787215,0.744435,-2.718784
0.081452,0.081005,8.163191
0.256598,0.313921,-7.805771
0.705318,0.060191,-4.181367
0.797918,0.317846,-11.312744
0.536233,0.882792,-3.956928
0.048670,0.437509,-0.926389
0.963099,0.704217,5.800846
0.076079,0.106526,-6.659892
0.161626,0.215598,4.836934
0.824244,0.785134,17.415061
0.150232,0.445380,4.979296
0.291915,0.426979,-3.290801
0.686899,0.569600,-7.598964
0.390947,0.579038,-0.774698
0.634099,0.181788,-4.010890
0.230348,0.913195,16.624399
0.030614,0.159640,7.899852
0.259392,0.486105,1.812409
0.498041,0.552806,0.756339
0.510410,0.520138,-0.611469
0.992643,0.971499,-14.055975
0.743395,0.545918,5.857348
0.787291,0.360109,-7.208610
0.407006,0.900239,8.103376
0.248619,0.881586,-2.775730
0.365147,0.665234,-1.721391
0.509939,0.873701,-17.730258
0.191273,0.807996,-17.185851
0.527098,0.808671,5.888040
0.980374,0.199137,-7.937767
0.454103,0.411445,5.128385
0.184378,0.447804,-4.718225
0.733282,0.975854,-13.115121
0.113787,0.000734,2.864679
0.860061,0.580100,-18.465662
0.656923,0.152287,6.182431
0.304871,0.296160,3.540242
0.664092,0.207580,1.266118
0.319815,0.382582,3.949251
0.298778,0.708375,3.378481
0.067552,0.511990,1.951084
0.933144,0.572580,-19.446904
0.079901,0.447806,-3.675727
0.249927,0.240415,2.815994
0.111903,0.539784,-0.902361
0.088479,0.044438,-3.702573
0.353045,0.561084,-2.126232
0.777761,0.679039,8.770577
0.076481,0.713794,7.949811
0.944913,0.206481,-7.438034
0.062119,0.395754,8.875672
0.091693,0.717397,0.266225
0.969818,0.437738,-10.523811
0.957369,0.294263,-2.879324
0.789037,0.206577,-0.659785
0.107540,0.812664,3.932891
0.760079,0.892313,-11.458460
0.350413,0.829185,5.548050
0.649254,0.894382,7.288937
0.729114,0.344021,-12.015926
0.749670,0.660055,-3.475778
0.763450,0.146253,-0.485270
0.665423,0.095245,15.004067
0.084383,0.062586,-4.300927
0.889939,0.594783,-4.247843
0.619155,0.446793,6.082314
0.501856,0.635358,-11.500918
0.713232,0.406911,8.464414
0.268118,0.050555,-11.899119
0.536843,0.205979,7.708024
0.726169,0.535572,-5.015816
0.570799,0.917499,-5.030355
0.676546,0.053695,-11.842272
0.056262,0.448941,-7.557272
0.345342,0.762662,6.373034
0.800399,0.474260,4.094903
0.968254,0.631042,-2.742343
0.103293,0.059849,1.838972
0.175666,0.947951,5.158882
0.525270,0.033318,1.709416
0.651690,0.606680,-7.743542
0.716574,0.020485,-6.492292
0.391201,0.417948,-19.049636
0.397697,0.885053,9.618723
0.498898,0.928716,0.605260
0.529968,0.391763,1.383173
0.845994,0.400510,-7.638490
0.893337,0.649387,1.041361
0.482564,0.412822,-5.541477
0.756167,0.158444,3.820820
0.669579,0.280233,-2.482620
0.590842,0.395895,-17.389530
0.989096,0.922367,-8.271849
0.880262,0.555273,-7.417643
0.118715,0.937436,0.660719
0.804293,0.853540,4.474927
0.098825,0.876626,17.083887
0.395889,0.933455,2.053991
0.181588,0.195726,6.498125
0.429604,0.554686,7.250675
0.357870,0.402251,-4.007710
0.540784,0.587509,-7.404387
0.006119,0.702099,4.933381
0.417581,0.622100,-4.712078
0.359412,0.807393,2.730623
0.993249,0.061494,-9.790015
0.992204,0.778292,-10.364359
0.081893,0.296214,-13.288051
0.953565,0.953809,1.877943
0.091155,0.076679,-0.433517
0.103859,0.118733,6.083850
0.151822,0.223376,-4.621152
0.540618,0.497242,0.342779
0.643704,0.486959,-6.208096
0.411152,0.258835,-5.460877
0.138628,0.546244,-20.099122
0.695843,0.687533,1.150467
0.967542,0.787373,6.849416
0.219958,0.771442,-2.466949
0.387157,0.944060,-1.829157
0.974729,0.117688,-2.007743
0.914935,0.838269,6.374017
0.825713,0.935383,3.229560
0.107702,0.625873,12.880706
0.089348,0.483466,-0.335612
0.855757,0.250629,-1.549352
0.827241,0.013722,-10.543309
0.958661,0.646589,8.810578
0.195703,0.934830,4.704434
0.946069,0.964238,6.606332
0.759154,0.300906,5.060428
0.393225,0.714068,-13.152645
0.416348,0.963503,-2.359266
0.339128,0.855432,-0.930847
0.228022,0.035539,-3.499490
0.688187,0.338382,-4.933683
0.778397,0.681505,4.221489
0.079209,0.098257,12.582665
0.648425,0.664523,-10.237765
0.803018,0.728793,-1.117602
0.030467,0.826893,8.083970
0.565695,0.892179,-7.588762
0.828614,0.898164,-7.517229
0.558031,0.845799,9.546442
0.964708,0.487585,0.971583
0.332893,0.526639,-7.535678
0.124323,0.033544,-4.981119
0.739086,0.201401,3.821999
0.229099,0.977574,11.579785
0.168536,0.823643,3.031211
0.008950,0.548285,-4.035434
0.778391,0.852668,3.505457
0.538569,0.984256,-23.419495
0.136764,0.803206,-10.451388
0.463369,0.967178,-1.268888
0.966661,0.277656,2.591053
0.616563,0.738555,2.054285
0.735409,0.461822,-5.380987
0.196152,0.350272,7.580554
0.290684,0.994786,-5.246332
0.628610,0.764024,-0.415707
0.840132,0.400810,-7.205713
0.649386,0.966650,2.289695
0.255413,0.859619,-6.591285
0.770756,0.901115,15.559128
0.886186,0.684690,15.484403
0.053719,0.928377,0.535079
0.678867,0.373237,-13.832102
0.402951,0.560493,-3.694200
0.869641,0.619062,-8.835599
0.042636,0.123255,21.040327
0.019914,0.921838,4.666626
0.475316,0.680577,12.198678
0.445819,0.615266,-9.011165
0.197137,0.697957,2.391613
0.653413,0.368646,0.879355
0.597695,0.618250,-6.369449
0.290356,0.337858,6.208151
0.120507,0.251761,18.005558
0.237081,0.494893,-3.695931
0.912342,0.578835,-1.881331
0.647505,0.056567,-26.972132
0.238815,0.196106,-7.741035
0.897783,0.620815,-8.808486
0.234417,0.016486,10.107081
0.829582,0.840410,-10.811792
0.857539,0.830224,-13.364719
0.233162,0.999442,-5.350824
0.915495,0.615573,18.864131
0.671674,0.536977,-1.899132
0.837084,0.217240,-10.129619
0.743743,0.645346,5.170893
0.796180,0.992847,2.583983
0.168269,0.348696,-1.925280
0.015864,0.218600,-10.183068
0.769288,0.704681,-4.185618
0.759690,0.831456,-10.906033
0.542656,0.529313,-9.200092
0.096152,0.274827,-3.419688
0.057518,0.912399,-4.558302
0.126736,0.176497,-5.348887
0.099936,0.215565,0.906381
0.540386,0.857780,-8.243171
0.179319,0.211634,-4.978019
0.701331,0.197192,-8.595428
0.506501,0.882477,2.039660
0.098331,0.894342,-8.235044
0.336726,0.344023,3.504034
0.182652,0.965861,-8.398785
0.046916,0.471240,9.337072
0.753533,0.135906,4.962702
0.753429,0.544520,8.591678
0.245206,0.431087,-2.808293
0.042042,0.575651,0.633451
0.917320,0.259977,-0.436106
0.440511,0.386661,1.045896
0.286317,0.912836,12.540733
0.630876,0.135968,-7.929414
0.273410,0.337801,0.390081
0.497928,0.539252,-7.774958
0.207461,0.562400,-14.825066
0.755206,0.060365,7.640725
0.417708,0.489324,-4.163233
0.773695,0.684134,-5.885014
0.450096,0.197812,3.151603
0.899692,0.940275,-3.763029
0.041324,0.327790,-2.648219
0.592407,0.499511,2.774077
0.902951,0.512313,3.473015
0.619690,0.080953,5.013936
0.824035,0.682940,2.320743
0.018165,0.951949,4.372603
0.252690,0.743554,-7.969588
0.876011,0.172727,10.025958
0.727074,0.270211,-7.544894
0.892453,0.379468,-6.670755
0.295885,0.426656,1.036636
0.907619,0.128127,-1.116405
0.701885,0.476379,-4.882888
0.949604,0.930285,-5.083100
0.650841,0.655671,-5.857751
0.128862,0.183411,-0.572746
0.264160,0.815414,1.646328
0.094112,0.501450,10.385921
0.256844,0.242170,-9.257060
0.878603,0.854865,12.371195
0.620535,0.403129,-1.734983
0.897806,0.959279,-5.402530
0.888180,0.234408,-2.877015
0.841486,0.970043,-1.052146
0.596582,0.913815,-6.168443
0.005045,0.039637,-9.813557
0.303375,0.597649,-0.098338
0.059730,0.494423,-14.948923
0.733243,0.711175,10.018544
0.053944,0.512132,-6.066080
0.830807,0.067337,0.109914
0.277208,0.365230,6.709043
0.633329,0.276304,1.784044
0.942665,0.053036,-18.116524
0.887186,0.961202,-0.561849
0.026584,0.505225,3.743545
0.436337,0.891308,5.987053
0.572184,0.477701,-6.639332
0.132824,0.836857,8.511450
0.055262,0.430761,8.040492
0.432406,0.593997,11.633783
0.190498,0.565373,16.651465
0.782067,0.047868,-4.483555
0.109010,0.613670,0.472271
0.880742,0.009662,1.214614
0.066887,0.785621,4.411963
0.200035,0.121212,6.102732
0.451622,0.029294,-10.611458
0.188693,0.737880,-4.836524
0.040800,0.297053,-3.277802
0.546586,0.199697,-0.377924
0.526823,0.007750,-13.733165
0.529491,0.338924,-12.768421
0.627599,0.435190,12.814865
0.219621,0.810051,-8.720960
0.570043,0.133943,0.538649
0.673023,0.967963,-15.460646
0.086014,0.313246,-6.078644
0.619835,0.166496,-3.952380
0.852690,0.931475,9.253499
0.816664,0.421031,-9.613077
0.728219,0.099247,-1.849676
0.747181,0.997195,0.351530
0.453479,0.043332,5.060811
0.675219,0.415750,-3.350192
0.052410,0.238028,-15.178982
0.254368,0.173898,4.141747
0.204987,0.858125,8.057705
0.449878,0.721221,-5.689584
0.307763,0.263506,-1.417798
0.386264,0.548003,13.772281
0.096414,0.442531,7.071131
0.997392,0.680714,-2.561681
0.206761,0.514881,-2.454787
0.351749,0.936298,-8.638464
0.133683,0.367371,13.373584
0.410188,0.624630,3.506414
0.212712,0.002094,5.619241
0.363469,0.152989,4.985959
0.315457,0.301122,-5.722034
0.350759,0.200812,-0.027958
0.624778,0.434408,15.119596
0.906381,0.844468,15.546072
0.285485,0.324163,10.511841
0.298384,0.436039,10.264459
0.823501,0.739490,-1.518673
0.718643,0.258250,-12.969192
0.399757,0.958597,-1.290919
0.729830,0.478240,-3.535457
0.114042,0.774536,-1.847062
0.598927,0.953449,-3.070857
0.467033,0.448063,-14.646025
0.764384,0.422495,5.475959
0.112916,0.911871,-7.960568
0.704624,0.384971,-10.428416
0.710347,0.565077,-7.583975
0.314275,0.425036,2.008964
0.046226,0.900856,4.323292
0.905124,0.035378,-7.496904
0.416692,0.272370,-9.176561
0.149294,0.189765,12.257717
0.565504,0.563722,8.538016
0.653856,0.501496,2.928176
0.527155,0.738531,12.616554
0.299385,0.793585,3.986500
0.835823,0.373854,-16.151132
0.538886,0.740934,-2.633170
0.333481,0.377899,5.930042
0.749117,0.485235,0.299770
0.193692,0.510660,0.362883
0.218505,0.698209,4.528412
0.072824,0.177675,-0.519805
0.309319,0.855511,-4.746114
0.895984,0.739320,-8.709801
0.768940,0.477898,9.341806
0.865677,0.115101,15.348105
0.351015,0.629739,-16.256736
0.743294,0.709304,2.929469
0.578410,0.122915,-18.944256
0.772951,0.135777,-4.354802
