x_norm,y_norm,sigma_MPa
0.922721,0.300180,18.058510
0.374480,0.272596,1.882412
0.362701,0.794469,7.209688
0.665621,0.364334,-3.934679
0.208501,0.543596,-9.044140
0.491624,0.322393,-5.510349
0.185497,0.856404,-2.661166
0.241588,0.566016,-8.995735
0.997546,0.497469,4.986135
0.395685,0.010211,8.605929
0.518835,0.691894,2.808271
0.771441,0.122020,2.467921
0.391367,0.655516,18.888293
0.602371,0.400029,5.592204
0.918862,0.096463,7.468538
0.202388,0.595026,-1.187787
0.602050,0.938445,-16.626191
0.734341,0.472699,-2.157515
0.337996,0.452888,4.045789
0.679180,0.088942,-15.554240
0.813477,0.068408,0.097312
0.902783,0.724085,3.497564
0.496987,0.399688,2.759281
0.754461,0.598291,-9.282263
0.331017,0.741295,-2.040805
0.589172,0.112693,-2.425738
0.063558,0.126789,-17.722536
0.355966,0.005797,13.330779
0.001146,0.617836,1.782881
0.807078,0.394401,-5.125655
0.278478,0.167597,-4.369480
0.831462,0.754704,0.852159
0.030140,0.956421,-10.172801
0.750078,0.730305,-12.346943
0.823333,0.343690,7.753543
0.918897,0.657905,16.266477
0.077673,0.455219,-2.733756
0.644473,0.929559,6.705192
0.522876,0.348524,3.020894
0.289022,0.081795,8.567235
0.361256,0.060430,9.447011
0.410444,0.393137,-19.675436
0.859856,0.806521,-3.931707
0.122215,0.786521,0.309199
0.798101,0.685891,11.352545
0.867813,0.133300,-1.604721
0.005338,0.131595,-7.885410
0.493753,0.948182,4.876404
0.700596,0.999116,2.070979
0.505526,0.906855,-0.760557
0.837584,0.476959,-5.286115
0.039676,0.049813,2.423311
0.105218,0.363698,8.167353
0.284945,0.361916,-9.995503
0.378223,0.479761,5.162664
0.788972,0.990130,-15.278996
0.712261,0.861252,1.102002
0.045305,0.465213,-0.563532
0.592101,0.278637,11.311241
0.550635,0.973558,7.963548
0.978471,0.171190,6.237339
0.212046,0.185035,-2.775514
0.640692,0.944052,7.697292
0.067336,0.127338,-14.256114
0.459543,0.031435,10.456740
0.343651,0.326662,-3.377077
0.918709,0.774757,4.373527
0.977964,0.516699,13.679424
0.186540,0.023807,10.739717
0.041039,0.832329,-0.085646
0.704493,0.953362,-9.296713
0.136200,0.267767,1.993589
0.031782,0.013193,3.628766
0.732082,0.447864,9.155298
0.894745,0.149059,-6.390332
0.691928,0.664457,-2.639212
0.079316,0.504149,3.011147
0.974848,0.627428,-9.119925
0.415619,0.470448,-2.857816
0.691702,0.925118,9.556445
0.830301,0.015911,6.683580
0.829727,0.348682,2.414789
0.909719,0.495141,-0.696919
0.236298,0.771907,0.956387
0.940463,0.905248,-10.263436
0.469252,0.208891,-6.568178
0.679799,0.949283,8.869758
0.188418,0.421739,1.381229
0.484482,0.189978,-4.624969
0.036068,0.449785,3.693600
0.769515,0.722599,-7.675678
0.502445,0.752469,-0.866720
0.524095,0.657209,13.152372
0.366688,0.929301,10.771752
0.360488,0.782336,-15.901640
0.309539,0.152872,-1.756522
0.355924,0.782394,-5.515932
0.535474,0.168110,-4.679380
0.497192,0.916401,-7.447664
0.407574,0.048954,-13.395380
0.467061,0.518814,2.263073
0.687972,0.839776,10.103937
0.014998,0.579813,-1.033289
0.117453,0.919163,3.531850
0.343218,0.424456,-3.908444
0.991651,0.311585,11.534694
0.363506,0.843277,-4.483771
0.416460,0.857657,-7.983782
0.138768,0.903501,-2.599546
0.109030,0.191793,11.632189
0.785959,0.492348,-0.165651
0.219431,0.916632,-12.562009
0.569619,0.355225,-13.253922
0.001610,0.553534,-11.642173
0.496818,0.156928,-6.392744
0.924357,0.803863,-5.249829
0.101662,0.085345,-2.323267
0.145579,0.913702,1.732476
0.706914,0.617885,4.391079
0.951219,0.664809,-3.483469
0.290875,0.661286,-9.088348
0.896342,0.115319,1.488293
0.345547,0.583787,4.917923
0.741134,0.970877,6.779514
0.709536,0.413739,0.586012
0.215696,0.156716,5.223572
0.513722,0.978371,-11.694865
0.729168,0.534771,-11.374691
0.878888,0.867668,1.924034
0.497419,0.519134,7.021306
0.859985,0.045883,-3.250025
0.647802,0.326613,-3.896192
0.915375,0.136865,6.545343
0.481620,0.209555,-0.585693
0.278662,0.851109,-6.732887
0.209098,0.656090,7.432271
0.733975,0.692533,-0.637356
0.463812,0.412833,7.382958
0.307265,0.994880,2.891467
0.353523,0.304329,-0.965778
0.572152,0.461489,-6.762295
0.296688,0.456360,6.372073
0.783938,0.999373,-4.305093
0.154967,0.445436,-3.599152
0.905912,0.927393,11.485407
0.840293,0.139267,-16.740898
0.688541,0.589230,1.743248
0.126495,0.086880,14.186647
0.453280,0.775788,0.678373
0.800515,0.192877,3.389572
0.023935,0.407873,14.331108
0.040429,0.124229,-7.175737
0.892585,0.379187,-10.551051
0.502467,0.338741,-7.949083
0.446409,0.854755,2.901763
0.646958,0.233679,-9.781957
0.448628,0.545392,-12.864337
0.912741,0.736606,3.226221
0.667792,0.230711,-1.176016
0.466131,0.354982,-9.151061
0.647245,0.274228,8.323091
0.858654,0.554715,4.292742
0.497518,0.612556,8.655986
0.870953,0.260727,-5.450515
0.850007,0.774330,-5.375317
0.253315,0.759789,-6.014575
0.851680,0.894103,12.106834
0.744177,0.101368,2.562620
0.956817,0.979595,1.097055
0.658701,0.931302,2.238754
0.381131,0.125841,2.412227
0.037363,0.021719,11.421031
0.660189,0.502201,5.879061
0.754944,0.722178,3.220895
0.633315,0.869547,10.329550
0.435017,0.348398,-0.923872
0.635478,0.554765,14.526396
0.345942,0.846075,-2.502129
0.792344,0.669957,12.294406
0.685222,0.765019,-14.386679
0.923782,0.724623,1.461214
0.627508,0.000524,11.206721
0.490760,0.784926,4.827000
0.822600,0.393511,10.546384
0.605085,0.402607,0.117333
0.143083,0.581120,-18.496713
0.368931,0.005310,2.883932
0.230374,0.606560,-9.981059
0.115734,0.648300,5.732748
0.893084,0.384999,3.624342
0.592526,0.979390,8.220309
0.152441,0.968482,-4.404145
0.358656,0.890799,-16.585628
0.177225,0.277343,-2.388113
0.452367,0.038023,4.534627
0.500330,0.930813,-11.791940
0.650449,0.599729,11.862668
0.794758,0.269052,8.218993
0.140017,0.617957,6.685414
0.701818,0.935942,12.275065
0.298815,0.581648,5.525887
0.841694,0.640438,18.357800
0.958857,0.192574,13.270399
0.239075,0.179436,-0.505741
0.409767,0.529544,9.282419
0.591109,0.361431,6.844450
0.842897,0.392442,-8.654072
0.464240,0.083206,9.125475
0.358783,0.452656,-8.374165
0.494365,0.749003,11.957508
0.849381,0.152045,-8.783682
0.363241,0.667755,6.639043
0.002894,0.063579,3.167554
0.137490,0.873300,-2.094938
0.108980,0.703389,-7.061979
0.085338,0.980466,-3.302776
0.758427,0.649208,-3.399137
0.813622,0.909304,-3.679927
0.208893,0.807103,-0.875765
0.932370,0.974390,-4.490730
0.771568,0.126742,9.600390
0.447108,0.186167,-6.429672
0.452890,0.880855,-3.021636
0.771895,0.880143,0.491957
0.357945,0.019029,-3.610534
0.565800,0.224536,1.299844
0.528207,0.934337,2.066915
0.773009,0.169947,2.865745
0.646216,0.796282,9.969692
0.091245,0.467735,-7.278371
0.180488,0.258058,6.872247
0.982655,0.097798,-6.040687
0.521464,0.643857,8.679773
0.873772,0.515293,-2.882175
0.003567,0.163051,-5.190874
0.268249,0.663567,10.645970
0.761119,0.832845,0.568927
0.460588,0.052790,1.046852
0.016274,0.424160,-4.472145
0.601868,0.485123,2.204825
0.289550,0.428130,-13.895874
0.557120,0.150740,-7.925157
0.044955,0.195211,1.155943
0.574470,0.049312,1.970001
0.350712,0.507874,-3.582565
0.765895,0.917922,-16.225478
0.586972,0.256238,-3.880127
0.418747,0.456377,-3.633871
0.871475,0.725050,3.432451
0.786594,0.614049,2.142014
0.002777,0.672763,-8.659132
0.864544,0.950411,2.845829
0.724287,0.492950,-5.825139
0.665223,0.446010,7.712549
0.440429,0.799025,4.373379
0.743057,0.254790,2.981388
0.968221,0.959495,-7.818310
0.091207,0.128994,10.800585
0.842549,0.647862,-1.607835
0.404692,0.127762,-7.012118
0.997033,0.318751,4.514530
0.077804,0.614258,7.749719
0.021450,0.748972,11.502981
0.914388,0.638987,-2.841242
0.689682,0.902384,-0.638259
0.123943,0.714443,0.458925
0.152490,0.172309,4.624493
0.814562,0.441279,7.877582
0.513480,0.124760,5.056634
0.993464,0.435558,4.311240
0.575830,0.589221,-5.341483
0.354584,0.284864,3.462024
0.921861,0.545191,-2.851359
0.814505,0.450329,-10.904436
0.682607,0.700467,-1.426280
0.210930,0.974903,13.234829
0.074994,0.787158,-12.580147
0.733139,0.461829,6.804926
0.103708,0.831711,-5.875346
0.594087,0.462186,13.601417
0.844773,0.480314,-12.096196
0.213529,0.721383,11.102785
0.939567,0.207443,2.890585
0.899544,0.750042,-5.162254
0.158430,0.282216,15.506929
0.714485,0.774406,4.391318
0.794706,0.528112,7.581137
0.690454,0.460555,-7.122592
0.395036,0.811212,-2.375293
0.101298,0.168350,22.401105
0.712679,0.910133,2.140968
0.249371,0.972109,4.961846
0.724149,0.234975,4.035376
0.119525,0.760696,3.408681
0.786129,0.451021,-6.198635
0.466679,0.418582,3.863876
0.181954,0.333863,0.648751
0.226592,0.068966,-9.218108
0.283548,0.179654,4.353419
0.218178,0.230921,0.501967
0.447029,0.108033,10.350434
0.964234,0.846295,11.469799
0.041954,0.562476,-10.700911
0.026457,0.651157,8.127598
0.670286,0.816470,-4.894505
0.402180,0.097890,-5.110409
0.405499,0.205144,1.460763
0.207975,0.990103,-4.190409
0.845022,0.731178,-0.704611
0.786320,0.029152,3.524360
0.588206,0.736253,-7.759277
0.610131,0.600040,11.480400
0.518059,0.599487,4.113173
0.204805,0.479124,-12.771300
0.295670,0.139583,-4.423559
0.668001,0.315728,-4.774653
0.411348,0.197743,5.683690
0.298446,0.922495,6.366509
0.059360,0.283118,-2.602301
0.482420,0.203918,0.265794
0.332604,0.170678,11.516601
0.765758,0.575138,-14.385984
0.451999,0.799992,9.464557
0.713485,0.284919,-7.731725
0.518858,0.205455,7.079278
0.665780,0.058777,-3.856363
0.617735,0.427650,3.390152
0.571599,0.184009,-8.613389
0.866858,0.988393,14.641407
0.176885,0.488227,6.598840
0.868203,0.490411,-5.060163
0.075099,0.857938,3.896603
0.070427,0.370644,-8.839012
0.646391,0.461534,-3.518862
0.646464,0.385748,-4.433214
0.911816,0.775981,7.284559
0.208074,0.069285,2.634790
0.259283,0.562869,-7.674066
0.887857,0.989061,-7.849884
0.400152,0.141849,-3.354581
0.406258,0.720037,6.944628
0.515234,0.368481,1.134269
0.635173,0.256979,5.755891
0.638119,0.294761,4.850032
0.374628,0.709228,1.870009
0.035043,0.997699,-8.558911
0.210878,0.231155,3.851035
0.994084,0.663981,-3.365399
0.412904,0.685749,-8.333101
0.934094,0.940408,6.589200
0.155251,0.677845,1.831516
0.827900,0.790744,-10.009504
0.983096,0.848274,-2.270774
0.925321,0.349656,0.018004
0.880536,0.606609,-2.556878
0.776987,0.670600,-0.399731
0.699662,0.334574,4.406886
0.652952,0.715382,-4.965693
0.449203,0.148340,-8.254059
0.254533,0.239525,-12.962006
0.704540,0.144979,-10.090744
0.657970,0.203611,15.808873
0.640337,0.358481,-1.011255
0.244988,0.391082,14.041379
0.111658,0.603560,10.631666
0.718344,0.617751,-4.503804
0.331559,0.916201,-3.080054
0.053583,0.249698,0.848377
0.898336,0.174845,-21.076991
0.201686,0.277564,-10.703899
0.048793,0.573539,8.964709
0.730501,0.217790,4.411798
0.351080,0.717510,22.833783
0.751129,0.041616,1.433194
0.193422,0.204843,4.153522
0.567741,0.554960,-0.832258
0.485300,0.949791,-0.051398
0.882373,0.472451,0.632485
0.521057,0.132137,-7.810667
0.494625,0.476362,-4.011854
0.028306,0.394963,5.677285
0.130311,0.290561,8.537483
0.688480,0.971453,5.798749
0.371780,0.487224,9.071327
0.018609,0.503195,-2.827159
0.304476,0.052975,7.040522
0.716107,0.460329,-6.503957
0.754334,0.101679,-9.454101
0.352334,0.821696,-6.403040
0.697613,0.129045,5.077575
0.914024,0.484079,4.278438
0.408479,0.926628,7.339386
0.874168,0.500961,-1.903577
0.042730,0.214518,13.103539
0.638430,0.174474,-3.108021
0.249855,0.018847,13.944489
0.856975,0.597811,11.206608
0.677621,0.124839,4.235673
0.324852,0.798348,-15.233286
0.028032,0.160743,3.063281
