x_norm,y_norm,sigma_MPa
0.791528,0.273269,2.550562
0.934019,0.451457,-5.597362
0.462965,0.590089,7.388310
0.494836,0.202487,-11.969008
0.778650,0.124198,1.895271
0.790807,0.980909,16.131526
0.945257,0.060782,1.210004
0.301430,0.478052,-0.350295
0.935363,0.912707,-0.537186
0.402296,0.104568,-15.586440
0.084797,0.565068,6.031508
0.984391,0.106558,-4.816263
0.328726,0.802478,1.729398
0.637684,0.682581,15.608802
0.700098,0.866090,-3.867012
0.617351,0.399207,5.988967
0.640959,0.277098,-3.510251
0.459390,0.657153,1.300828
0.380476,0.566880,-2.584775
0.923630,0.555256,-8.524425
0.302449,0.560774,-2.211080
0.693233,0.652485,0.531103
0.400438,0.360613,0.105961
0.295293,0.390677,-3.643417
0.351076,0.685629,1.223350
0.359129,0.572591,-19.470875
0.396551,0.968546,-10.766805
0.835407,0.535433,0.110766
0.125112,0.643793,-4.777369
0.029417,0.812776,-7.155444
0.283661,0.831526,-7.246942
0.605929,0.259938,-1.651502
0.232678,0.510982,-8.578929
0.739673,0.211022,2.989287
0.605295,0.345135,5.586830
0.780074,0.402456,-8.611793
0.194662,0.619948,2.779556
0.788682,0.092713,-5.480461
0.139824,0.895294,1.842347
0.080051,0.042262,-1.008447
0.519459,0.368893,-1.153601
0.296717,0.967173,-1.680707
0.454587,0.329050,9.623555
0.299888,0.110981,12.849252
0.604971,0.105241,0.950651
0.476400,0.265513,9.305252
0.186792,0.759453,3.431244
0.850407,0.237675,7.533782
0.520737,0.778996,2.740762
0.706552,0.700430,0.234165
0.210518,0.679843,3.283339
0.094324,0.043594,12.327160
0.782659,0.554111,-4.294026
0.618949,0.742158,23.481990
0.946584,0.991860,-7.431629
0.515004,0.987081,-0.201096
0.782709,0.460443,0.195654
0.750768,0.582047,-9.152804
0.373240,0.029830,-1.614335
0.858915,0.551232,-1.112989
0.981274,0.375999,-3.896807
0.307950,0.017339,-0.199819
0.450884,0.822461,2.809703
0.962247,0.753731,14.226925
0.129338,0.559537,-3.334939
0.567111,0.346371,1.682124
0.622251,0.150836,-0.774912
0.874008,0.221533,6.114432
0.430125,0.066288,15.664044
0.475444,0.882070,7.268908
0.188715,0.416657,-5.193233
0.422204,0.107699,3.719148
0.840039,0.972012,-11.588862
0.075771,0.705382,-1.834542
0.025534,0.927390,6.590012
0.697302,0.844641,0.559540
0.805935,0.505895,15.239104
0.422901,0.870465,-2.065151
0.978571,0.610439,-7.183308
0.297666,0.970451,-16.447268
0.726984,0.823102,6.253546
0.099723,0.447850,-1.570957
0.079338,0.348372,-2.501746
0.347284,0.523687,-4.513734
0.760453,0.429816,12.242929
0.213862,0.916520,-9.386019
0.451599,0.366431,-17.898167
0.082345,0.877824,13.343767
0.140637,0.426501,-8.207393
0.989879,0.149899,-3.877158
0.464065,0.960687,11.829205
0.183474,0.577765,5.492664
0.721182,0.254107,-9.039803
0.525580,0.534785,-1.930737
0.373288,0.580451,-17.517520
0.028500,0.321476,4.964415
0.159539,0.186355,6.063220
0.949259,0.477226,11.526926
0.929754,0.858984,0.144418
0.882711,0.161151,-17.051484
0.555834,0.162116,-16.739383
0.224470,0.949749,-4.322837
0.996601,0.715763,16.707322
0.119410,0.015356,17.986377
0.527496,0.800721,-11.711729
0.002499,0.718653,4.543269
0.236401,0.038056,-0.759018
0.231882,0.452133,3.340298
0.299223,0.218601,5.514681
0.226380,0.339519,10.643728
0.588679,0.990749,3.482042
0.129827,0.868674,8.541343
0.470959,0.757274,2.208981
0.132304,0.743438,9.221716
0.303135,0.909417,-10.887910
0.919112,0.501932,-2.232761
0.370988,0.341331,4.650323
0.440723,0.436781,-2.040951
0.105647,0.134088,22.106527
0.526282,0.733601,9.275852
0.358180,0.999846,14.592556
0.491390,0.526436,-8.888422
0.858321,0.552309,9.869023
0.056182,0.084670,5.086377
0.023371,0.750065,-2.959418
0.878880,0.454464,-3.500169
0.619729,0.235510,-6.743631
0.282069,0.678041,-1.488896
0.086131,0.791208,3.657425
0.942996,0.072897,9.853198
0.024612,0.889524,-5.087541
0.874740,0.595936,5.675347
0.060516,0.612201,-9.001859
0.476556,0.747095,11.296890
0.414803,0.932690,-11.747342
0.694057,0.962129,8.330894
0.296541,0.401024,5.402998
0.065552,0.695401,9.151883
0.168461,0.881304,3.114847
0.609141,0.140205,-1.772881
0.250367,0.011936,-2.136444
0.679597,0.217251,5.844477
0.820661,0.081438,3.374652
0.911742,0.593123,4.698756
0.104039,0.769046,3.399625
0.032455,0.073444,-3.626958
0.269201,0.380119,-11.028585
0.467290,0.539495,4.119340
0.775292,0.580313,5.016980
0.858169,0.433802,-3.258925
0.201633,0.647821,-1.778068
0.314290,0.414908,-9.193189
0.560918,0.681181,1.634592
0.888180,0.712126,-6.891847
0.801159,0.015023,1.155219
0.895233,0.251072,-9.038633
0.918001,0.597598,1.557077
0.673461,0.438217,3.948769
0.236903,0.591314,-0.280145
0.110514,0.599249,2.177298
0.359182,0.941692,10.397167
0.710995,0.830339,8.727053
0.274341,0.313972,7.110888
0.190700,0.760879,8.105820
0.617842,0.586019,-6.288532
0.493120,0.569486,-0.823269
0.435861,0.532571,0.273255
0.490742,0.318472,-14.501790
0.053612,0.995010,8.140684
0.888850,0.099332,-1.417704
0.673905,0.909345,0.390765
0.808451,0.973323,0.936865
0.355792,0.613055,-1.420944
0.527796,0.077123,-8.532538
0.658287,0.717070,-3.750215
0.366125,0.242104,0.504566
0.245802,0.881793,-14.396414
0.651610,0.434913,21.461565
0.720678,0.298749,8.128552
0.760573,0.449576,5.704409
0.658578,0.594680,0.736559
0.498643,0.692853,8.279526
0.719905,0.292008,11.368094
0.368362,0.849593,1.216181
0.860003,0.425430,6.884347
0.923979,0.741362,5.355039
0.990328,0.306160,2.263345
0.070222,0.735767,1.296816
0.904873,0.395672,-3.899350
0.851511,0.391370,-9.353275
0.577440,0.640286,-6.043184
0.007278,0.063435,1.206928
0.609236,0.255177,8.750871
0.865309,0.621438,-11.237371
0.421321,0.136419,-7.807848
0.283245,0.724480,0.090844
0.196457,0.771256,-14.238571
0.399053,0.382468,10.505887
0.392121,0.820874,-1.934115
0.898280,0.087957,2.322885
0.123241,0.792431,-1.097555
0.194922,0.180170,0.067742
0.469356,0.761336,2.247360
0.274526,0.892529,-3.119896
0.564307,0.915751,1.063828
0.120808,0.072907,-12.520401
0.935685,0.349945,0.356199
0.607468,0.571181,1.835273
0.358524,0.806565,-4.627079
0.345387,0.922096,-6.863289
0.682917,0.346798,-3.371259
0.181849,0.060983,-13.068341
0.448226,0.502636,4.884860
0.063513,0.833003,11.318890
0.654419,0.934183,-6.969551
0.650261,0.009722,12.050662
0.618230,0.216593,1.318940
0.301184,0.108902,-2.956233
0.230671,0.732609,-0.211738
0.151395,0.144074,-3.209843
0.583141,0.053641,12.147004
0.206337,0.812177,10.447524
0.465423,0.779305,-9.916350
0.928394,0.487952,-12.731124
0.649891,0.038236,14.401456
0.024309,0.423444,12.333487
0.679427,0.181476,4.722310
0.036370,0.288375,-0.757152
0.472247,0.141114,15.884110
0.303057,0.274157,6.377274
0.738722,0.042071,6.573612
0.313636,0.452948,2.108673
0.095073,0.343727,-3.544960
0.965486,0.703547,-5.721996
0.959227,0.536825,-4.421209
0.785279,0.329637,1.465466
0.817322,0.470654,1.067260
0.513649,0.237313,-2.225700
0.928005,0.183313,1.916002
0.680255,0.360491,-3.266117
0.562211,0.411176,-2.377832
0.686423,0.882126,4.680591
0.396087,0.730696,-3.159408
0.149952,0.140467,-1.494343
0.256156,0.861215,16.946300
0.444191,0.291191,-2.372582
0.793656,0.645751,-9.310677
0.842893,0.256798,6.831655
0.334148,0.359427,1.751083
0.432035,0.881019,-2.006373
0.491287,0.596846,-14.998482
0.561669,0.081582,-3.902205
0.502937,0.765317,-6.298763
0.388299,0.473236,-5.013405
0.498868,0.176425,10.226350
0.912345,0.029900,9.380391
0.231013,0.785798,22.742646
0.780847,0.579434,3.401098
0.339896,0.178529,6.052647
0.935510,0.627249,-2.815138
0.658154,0.318668,1.629574
0.539270,0.622250,-6.088303
0.410890,0.076484,4.659856
0.162148,0.400611,-11.112560
0.822358,0.839036,-1.655747
0.992475,0.473487,-3.338108
0.273541,0.697641,12.771809
0.892599,0.020605,1.102992
0.807604,0.785199,0.981879
0.050593,0.687475,2.704801
0.593121,0.218648,5.900763
0.930129,0.568190,2.867602
0.205960,0.131549,-1.445818
0.475200,0.476634,2.544172
0.848407,0.548061,5.043225
0.120001,0.958663,-8.416648
0.379827,0.019481,-10.476076
0.046458,0.053204,-2.709892
0.696173,0.082826,-6.001464
0.707768,0.512487,1.303938
0.370090,0.838225,5.075571
0.159300,0.165484,20.711277
0.472478,0.680419,-5.705588
0.871004,0.080428,14.179450
0.754054,0.569379,3.382888
0.507064,0.106815,-1.505019
0.387684,0.569169,4.587487
0.851015,0.526169,4.573836
0.907598,0.176995,-11.703095
0.075635,0.945264,0.741793
0.854033,0.422941,-15.455536
0.623350,0.491898,4.749430
0.874524,0.948754,-14.354333
0.843864,0.460869,-17.561350
0.779320,0.506165,-14.806765
0.465139,0.414238,16.048360
0.034513,0.027156,-6.296394
0.307918,0.303281,-6.130003
0.535660,0.342383,9.801562
0.093897,0.965470,1.124556
0.295506,0.819539,17.091589
0.293632,0.069712,6.630389
0.169725,0.311120,-6.358363
0.268847,0.389481,13.723697
0.224497,0.172823,4.715685
0.971480,0.281373,-17.701716
0.593174,0.687066,8.928272
0.219297,0.893057,-1.261192
0.016664,0.649758,-0.372986
0.047322,0.885424,5.404198
0.015939,0.080166,-10.175110
0.286853,0.300460,3.782483
0.377842,0.456017,9.816330
0.879633,0.997475,-5.141663
0.036578,0.666486,-10.997275
0.911744,0.713867,5.448101
0.330901,0.827261,-11.074056
0.291046,0.448078,3.045056
0.375572,0.052587,6.959762
0.947204,0.873117,2.653434
0.425831,0.257183,-1.754376
0.751210,0.192170,-11.133299
0.799159,0.390812,0.321790
0.935649,0.055767,-11.500531
0.741150,0.321258,0.291629
0.420871,0.807044,10.052221
0.621862,0.889809,5.839634
0.430279,0.827062,4.203151
0.377061,0.773275,-0.397656
0.973465,0.077839,-11.582102
0.912092,0.872845,11.825235
0.112926,0.013021,7.589039
0.691000,0.523896,-4.744556
0.914726,0.043680,-16.032154
0.477294,0.635110,-10.932657
0.361197,0.218783,-11.562787
0.395507,0.244780,-0.380101
0.517356,0.841163,1.923965
0.080405,0.011518,1.357589
0.346509,0.029317,-7.227725
0.102707,0.990902,2.895963
0.556862,0.247215,0.201493
0.715756,0.654715,6.634029
0.262815,0.292095,-13.267116
0.778109,0.355866,3.416452
0.959160,0.657505,-9.102454
0.593725,0.098467,-10.252443
0.787849,0.638814,-3.661146
0.590148,0.819819,6.668439
0.925921,0.202481,-14.983446
0.566949,0.426719,5.099277
0.660018,0.965380,19.954418
0.302952,0.351330,6.417332
0.324824,0.550586,-4.224607
0.031361,0.972474,6.573968
0.059601,0.024065,-0.661171
0.905270,0.143432,-8.054215
0.362108,0.151196,-7.246724
0.630598,0.258496,4.456505
0.303032,0.551746,0.771459
0.838898,0.452801,16.192235
0.203221,0.186114,2.500989
0.721370,0.889217,-15.441923
0.154187,0.752892,17.376671
0.781723,0.137052,-3.785797
0.617478,0.587062,6.290583
0.339274,0.236881,0.468434
0.299990,0.733291,1.753597
0.775548,0.495464,1.261451
0.240342,0.589199,10.382290
0.136532,0.021801,5.999369
0.937614,0.614084,-7.323921
0.850417,0.166855,2.563253
0.039138,0.665421,1.579265
0.798170,0.693632,0.662004
0.767726,0.522586,-1.928359
0.515295,0.052856,-2.860355
0.205415,0.441105,10.258599
0.839983,0.811472,5.141326
0.455156,0.561683,-4.667127
0.523431,0.675223,-15.031096
0.208429,0.178093,-3.439995
0.536512,0.185429,7.898936
0.845495,0.542684,11.933519
0.714448,0.932352,9.624440
0.052607,0.594898,7.754642
0.564014,0.420319,2.346676
0.186381,0.041016,-12.371418
0.572801,0.790805,0.888175
0.535656,0.219117,0.752339
0.028515,0.869817,1.819339
0.737899,0.506046,-5.194860
0.761741,0.680858,8.521459
0.090512,0.870961,16.907683
0.237967,0.462555,0.568205
0.333696,0.450475,5.749846
0.705669,0.875402,15.006087
0.404116,0.716783,0.580572
0.176993,0.277534,-0.760839
0.985822,0.284310,-13.085898
